Fm-3m,,,Ia-3,,,P63m,
10,365,,10,526,,10,573
10.015,357,,10.015,518,,10.015,542
10.03,406,,10.03,556,,10.03,535
10.045,388,,10.045,547,,10.045,530
10.06,403,,10.06,538,,10.06,563
10.075,403,,10.075,539,,10.075,550
10.09,398,,10.09,505,,10.09,535
10.105,407,,10.105,524,,10.105,518
10.12,371,,10.12,536,,10.12,574
10.135,374,,10.135,549,,10.135,565
10.15,363,,10.15,516,,10.15,566
10.165,391,,10.165,513,,10.165,539
10.18,393,,10.18,530,,10.18,545
10.195,406,,10.195,539,,10.195,559
10.21,413,,10.21,579,,10.21,537
10.225,380,,10.225,566,,10.225,562
10.24,373,,10.24,532,,10.24,536
10.255,372,,10.255,538,,10.255,556
10.27,384,,10.27,512,,10.27,584
10.285,407,,10.285,494,,10.285,580
10.3,394,,10.3,519,,10.3,551
10.315,384,,10.315,518,,10.315,568
10.33,416,,10.33,519,,10.33,548
10.345,406,,10.345,530,,10.345,532
10.36,369,,10.36,527,,10.36,543
10.375,405,,10.375,537,,10.375,538
10.39,397,,10.39,516,,10.39,559
10.405,401,,10.405,520,,10.405,569
10.42,407,,10.42,563,,10.42,577
10.435,394,,10.435,531,,10.435,545
10.45,374,,10.45,491,,10.45,536
10.465,361,,10.465,529,,10.465,587
10.48,394,,10.48,523,,10.48,538
10.495,369,,10.495,518,,10.495,563
10.51,390,,10.51,498,,10.51,556
10.525,383,,10.525,502,,10.525,566
10.54,377,,10.54,539,,10.54,558
10.555,385,,10.555,504,,10.555,561
10.57,392,,10.57,520,,10.57,559
10.585,386,,10.585,504,,10.585,540
10.6,391,,10.6,529,,10.6,512
10.615,383,,10.615,567,,10.615,554
10.63,379,,10.63,516,,10.63,520
10.645,365,,10.645,520,,10.645,547
10.66,370,,10.66,537,,10.66,529
10.675,365,,10.675,535,,10.675,556
10.69,375,,10.69,515,,10.69,581
10.705,418,,10.705,514,,10.705,521
10.72,365,,10.72,514,,10.72,530
10.735,391,,10.735,513,,10.735,518
10.75,385,,10.75,528,,10.75,540
10.765,363,,10.765,530,,10.765,561
10.78,409,,10.78,543,,10.78,536
10.795,376,,10.795,515,,10.795,533
10.81,406,,10.81,513,,10.81,539
10.825,392,,10.825,529,,10.825,551
10.84,385,,10.84,509,,10.84,528
10.855,395,,10.855,551,,10.855,520
10.87,405,,10.87,577,,10.87,577
10.885,401,,10.885,495,,10.885,559
10.9,403,,10.9,495,,10.9,539
10.915,383,,10.915,507,,10.915,532
10.93,379,,10.93,513,,10.93,557
10.945,366,,10.945,530,,10.945,551
10.96,361,,10.96,557,,10.96,534
10.975,382,,10.975,535,,10.975,524
10.99,410,,10.99,511,,10.99,545
11.005,379,,11.005,539,,11.005,535
11.02,393,,11.02,535,,11.02,577
11.035,391,,11.035,518,,11.035,518
11.05,403,,11.05,545,,11.05,512
11.065,388,,11.065,506,,11.065,531
11.08,384,,11.08,524,,11.08,521
11.095,374,,11.095,526,,11.095,524
11.11,358,,11.11,506,,11.11,569
11.125,378,,11.125,509,,11.125,557
11.14,370,,11.14,473,,11.14,569
11.155,380,,11.155,495,,11.155,545
11.17,379,,11.17,515,,11.17,551
11.185,393,,11.185,568,,11.185,544
11.2,408,,11.2,533,,11.2,540
11.215,439,,11.215,558,,11.215,576
11.23,391,,11.23,523,,11.23,551
11.245,383,,11.245,550,,11.245,540
11.26,377,,11.26,550,,11.26,540
11.275,381,,11.275,536,,11.275,577
11.29,405,,11.29,514,,11.29,551
11.305,382,,11.305,513,,11.305,543
11.32,390,,11.32,519,,11.32,541
11.335,386,,11.335,512,,11.335,536
11.35,395,,11.35,519,,11.35,552
11.365,395,,11.365,563,,11.365,563
11.38,400,,11.38,523,,11.38,532
11.395,415,,11.395,502,,11.395,576
11.41,395,,11.41,512,,11.41,578
11.425,374,,11.425,538,,11.425,566
11.44,362,,11.44,520,,11.44,561
11.455,381,,11.455,532,,11.455,594
11.47,398,,11.47,545,,11.47,582
11.485,386,,11.485,562,,11.485,593
11.5,382,,11.5,531,,11.5,571
11.515,369,,11.515,541,,11.515,565
11.53,387,,11.53,522,,11.53,539
11.545,378,,11.545,500,,11.545,539
11.56,387,,11.56,526,,11.56,548
11.575,384,,11.575,557,,11.575,579
11.59,401,,11.59,523,,11.59,582
11.605,416,,11.605,496,,11.605,609
11.62,410,,11.62,497,,11.62,595
11.635,378,,11.635,499,,11.635,583
11.65,369,,11.65,536,,11.65,532
11.665,384,,11.665,540,,11.665,580
11.68,358,,11.68,547,,11.68,611
11.695,379,,11.695,517,,11.695,564
11.71,370,,11.71,515,,11.71,592
11.725,389,,11.725,521,,11.725,600
11.74,399,,11.74,556,,11.74,583
11.755,401,,11.755,553,,11.755,597
11.77,412,,11.77,537,,11.77,581
11.785,406,,11.785,555,,11.785,588
11.8,395,,11.8,569,,11.8,592
11.815,411,,11.815,593,,11.815,585
11.83,403,,11.83,543,,11.83,564
11.845,388,,11.845,551,,11.845,605
11.86,352,,11.86,523,,11.86,640
11.875,397,,11.875,516,,11.875,601
11.89,383,,11.89,536,,11.89,603
11.905,389,,11.905,498,,11.905,621
11.92,374,,11.92,522,,11.92,612
11.935,402,,11.935,555,,11.935,618
11.95,372,,11.95,531,,11.95,611
11.965,386,,11.965,514,,11.965,660
11.98,392,,11.98,527,,11.98,659
11.995,385,,11.995,525,,11.995,654
12.01,399,,12.01,552,,12.01,640
12.025,360,,12.025,588,,12.025,657
12.04,370,,12.04,568,,12.04,684
12.055,370,,12.055,590,,12.055,712
12.07,384,,12.07,573,,12.07,710
12.085,400,,12.085,549,,12.085,704
12.1,410,,12.1,554,,12.1,741
12.115,420,,12.115,551,,12.115,787
12.13,382,,12.13,542,,12.13,747
12.145,391,,12.145,525,,12.145,766
12.16,413,,12.16,521,,12.16,850
12.175,418,,12.175,519,,12.175,878
12.19,416,,12.19,561,,12.19,880
12.205,404,,12.205,559,,12.205,938
12.22,405,,12.22,548,,12.22,1013
12.235,435,,12.235,525,,12.235,1081
12.25,412,,12.25,504,,12.25,1065
12.265,400,,12.265,515,,12.265,1108
12.28,403,,12.28,541,,12.28,1091
12.295,396,,12.295,554,,12.295,1153
12.31,377,,12.31,524,,12.31,1250
12.325,391,,12.325,547,,12.325,1291
12.34,401,,12.34,546,,12.34,1372
12.355,401,,12.355,566,,12.355,1359
12.37,383,,12.37,568,,12.37,1386
12.385,401,,12.385,546,,12.385,1386
12.4,392,,12.4,529,,12.4,1468
12.415,380,,12.415,513,,12.415,1474
12.43,390,,12.43,555,,12.43,1441
12.445,402,,12.445,540,,12.445,1354
12.46,395,,12.46,514,,12.46,1407
12.475,372,,12.475,546,,12.475,1382
12.49,387,,12.49,550,,12.49,1386
12.505,382,,12.505,538,,12.505,1343
12.52,393,,12.52,562,,12.52,1374
12.535,412,,12.535,581,,12.535,1377
12.55,417,,12.55,581,,12.55,1279
12.565,370,,12.565,535,,12.565,1228
12.58,375,,12.58,566,,12.58,1206
12.595,379,,12.595,559,,12.595,1179
12.61,397,,12.61,544,,12.61,1117
12.625,418,,12.625,567,,12.625,1111
12.64,410,,12.64,530,,12.64,1067
12.655,402,,12.655,552,,12.655,998
12.67,388,,12.67,578,,12.67,968
12.685,371,,12.685,536,,12.685,931
12.7,366,,12.7,550,,12.7,917
12.715,386,,12.715,600,,12.715,877
12.73,406,,12.73,588,,12.73,830
12.745,395,,12.745,548,,12.745,837
12.76,409,,12.76,571,,12.76,810
12.775,426,,12.775,595,,12.775,808
12.79,425,,12.79,579,,12.79,740
12.805,394,,12.805,570,,12.805,699
12.82,366,,12.82,591,,12.82,701
12.835,396,,12.835,537,,12.835,697
12.85,368,,12.85,487,,12.85,703
12.865,409,,12.865,551,,12.865,694
12.88,410,,12.88,543,,12.88,686
12.895,417,,12.895,543,,12.895,679
12.91,416,,12.91,544,,12.91,691
12.925,418,,12.925,550,,12.925,701
12.94,433,,12.94,559,,12.94,680
12.955,414,,12.955,545,,12.955,629
12.97,416,,12.97,535,,12.97,641
12.985,395,,12.985,598,,12.985,618
13,419,,13,601,,13,612
13.015,414,,13.015,584,,13.015,606
13.03,391,,13.03,547,,13.03,601
13.045,398,,13.045,557,,13.045,606
13.06,392,,13.06,518,,13.06,583
13.075,383,,13.075,574,,13.075,602
13.09,408,,13.09,560,,13.09,591
13.105,385,,13.105,513,,13.105,603
13.12,405,,13.12,537,,13.12,621
13.135,445,,13.135,531,,13.135,601
13.15,424,,13.15,557,,13.15,620
13.165,373,,13.165,551,,13.165,606
13.18,401,,13.18,556,,13.18,602
13.195,413,,13.195,561,,13.195,574
13.21,453,,13.21,541,,13.21,563
13.225,414,,13.225,575,,13.225,582
13.24,376,,13.24,556,,13.24,586
13.255,415,,13.255,559,,13.255,592
13.27,413,,13.27,566,,13.27,580
13.285,411,,13.285,570,,13.285,586
13.3,414,,13.3,580,,13.3,604
13.315,421,,13.315,553,,13.315,625
13.33,402,,13.33,566,,13.33,582
13.345,412,,13.345,597,,13.345,570
13.36,402,,13.36,575,,13.36,611
13.375,393,,13.375,552,,13.375,570
13.39,397,,13.39,561,,13.39,591
13.405,378,,13.405,550,,13.405,572
13.42,364,,13.42,583,,13.42,593
13.435,421,,13.435,556,,13.435,595
13.45,432,,13.45,567,,13.45,568
13.465,400,,13.465,542,,13.465,564
13.48,414,,13.48,580,,13.48,575
13.495,415,,13.495,580,,13.495,556
13.51,394,,13.51,559,,13.51,569
13.525,387,,13.525,568,,13.525,585
13.54,385,,13.54,517,,13.54,599
13.555,397,,13.555,552,,13.555,569
13.57,414,,13.57,579,,13.57,590
13.585,420,,13.585,558,,13.585,583
13.6,416,,13.6,563,,13.6,569
13.615,394,,13.615,584,,13.615,579
13.63,429,,13.63,548,,13.63,605
13.645,393,,13.645,563,,13.645,611
13.66,367,,13.66,551,,13.66,565
13.675,377,,13.675,559,,13.675,586
13.69,369,,13.69,570,,13.69,594
13.705,420,,13.705,564,,13.705,562
13.72,398,,13.72,552,,13.72,584
13.735,398,,13.735,572,,13.735,553
13.75,410,,13.75,564,,13.75,591
13.765,387,,13.765,569,,13.765,594
13.78,408,,13.78,586,,13.78,553
13.795,385,,13.795,599,,13.795,609
13.81,369,,13.81,557,,13.81,593
13.825,385,,13.825,523,,13.825,565
13.84,398,,13.84,567,,13.84,624
13.855,416,,13.855,554,,13.855,569
13.87,392,,13.87,551,,13.87,586
13.885,402,,13.885,530,,13.885,564
13.9,387,,13.9,531,,13.9,619
13.915,418,,13.915,562,,13.915,602
13.93,437,,13.93,567,,13.93,588
13.945,435,,13.945,556,,13.945,617
13.96,398,,13.96,562,,13.96,565
13.975,397,,13.975,561,,13.975,570
13.99,384,,13.99,542,,13.99,549
14.005,401,,14.005,540,,14.005,562
14.02,403,,14.02,556,,14.02,570
14.035,386,,14.035,568,,14.035,542
14.05,397,,14.05,551,,14.05,567
14.065,380,,14.065,554,,14.065,556
14.08,394,,14.08,544,,14.08,577
14.095,397,,14.095,551,,14.095,576
14.11,381,,14.11,534,,14.11,569
14.125,385,,14.125,552,,14.125,578
14.14,385,,14.14,530,,14.14,597
14.155,376,,14.155,565,,14.155,561
14.17,403,,14.17,530,,14.17,573
14.185,388,,14.185,574,,14.185,612
14.2,386,,14.2,573,,14.2,585
14.215,409,,14.215,531,,14.215,587
14.23,422,,14.23,544,,14.23,583
14.245,404,,14.245,579,,14.245,580
14.26,416,,14.26,552,,14.26,559
14.275,373,,14.275,519,,14.275,578
14.29,408,,14.29,534,,14.29,601
14.305,417,,14.305,558,,14.305,567
14.32,406,,14.32,553,,14.32,530
14.335,395,,14.335,573,,14.335,529
14.35,388,,14.35,595,,14.35,574
14.365,386,,14.365,559,,14.365,590
14.38,381,,14.38,519,,14.38,549
14.395,371,,14.395,511,,14.395,556
14.41,382,,14.41,517,,14.41,588
14.425,384,,14.425,534,,14.425,585
14.44,388,,14.44,534,,14.44,593
14.455,392,,14.455,568,,14.455,590
14.47,381,,14.47,528,,14.47,554
14.485,374,,14.485,531,,14.485,592
14.5,361,,14.5,521,,14.5,569
14.515,391,,14.515,543,,14.515,595
14.53,403,,14.53,564,,14.53,564
14.545,396,,14.545,567,,14.545,540
14.56,379,,14.56,534,,14.56,562
14.575,379,,14.575,532,,14.575,553
14.59,389,,14.59,543,,14.59,533
14.605,392,,14.605,561,,14.605,554
14.62,370,,14.62,525,,14.62,575
14.635,370,,14.635,512,,14.635,567
14.65,373,,14.65,527,,14.65,575
14.665,377,,14.665,545,,14.665,584
14.68,405,,14.68,546,,14.68,585
14.695,399,,14.695,557,,14.695,541
14.71,386,,14.71,527,,14.71,544
14.725,366,,14.725,543,,14.725,561
14.74,396,,14.74,545,,14.74,557
14.755,413,,14.755,521,,14.755,586
14.77,401,,14.77,554,,14.77,567
14.785,388,,14.785,532,,14.785,555
14.8,393,,14.8,545,,14.8,545
14.815,399,,14.815,544,,14.815,533
14.83,373,,14.83,552,,14.83,544
14.845,391,,14.845,551,,14.845,558
14.86,390,,14.86,538,,14.86,553
14.875,390,,14.875,565,,14.875,536
14.89,375,,14.89,571,,14.89,565
14.905,390,,14.905,528,,14.905,589
14.92,395,,14.92,535,,14.92,579
14.935,401,,14.935,545,,14.935,555
14.95,412,,14.95,519,,14.95,581
14.965,380,,14.965,502,,14.965,546
14.98,399,,14.98,512,,14.98,554
14.995,396,,14.995,526,,14.995,546
15.01,381,,15.01,557,,15.01,523
15.025,365,,15.025,548,,15.025,529
15.04,368,,15.04,538,,15.04,519
15.055,375,,15.055,538,,15.055,560
15.07,386,,15.07,553,,15.07,543
15.085,384,,15.085,562,,15.085,532
15.1,377,,15.1,548,,15.1,557
15.115,394,,15.115,497,,15.115,573
15.13,407,,15.13,566,,15.13,549
15.145,383,,15.145,564,,15.145,514
15.16,361,,15.16,548,,15.16,577
15.175,378,,15.175,506,,15.175,566
15.19,360,,15.19,503,,15.19,573
15.205,361,,15.205,527,,15.205,559
15.22,379,,15.22,514,,15.22,529
15.235,392,,15.235,499,,15.235,534
15.25,392,,15.25,522,,15.25,545
15.265,365,,15.265,528,,15.265,540
15.28,367,,15.28,550,,15.28,541
15.295,363,,15.295,518,,15.295,534
15.31,378,,15.31,517,,15.31,515
15.325,389,,15.325,549,,15.325,549
15.34,377,,15.34,523,,15.34,529
15.355,394,,15.355,553,,15.355,563
15.37,410,,15.37,531,,15.37,551
15.385,376,,15.385,514,,15.385,539
15.4,378,,15.4,541,,15.4,566
15.415,350,,15.415,560,,15.415,545
15.43,380,,15.43,528,,15.43,533
15.445,351,,15.445,483,,15.445,559
15.46,362,,15.46,538,,15.46,549
15.475,350,,15.475,552,,15.475,530
15.49,370,,15.49,542,,15.49,499
15.505,379,,15.505,522,,15.505,525
15.52,361,,15.52,569,,15.52,497
15.535,383,,15.535,592,,15.535,533
15.55,376,,15.55,545,,15.55,539
15.565,399,,15.565,577,,15.565,532
15.58,393,,15.58,591,,15.58,581
15.595,375,,15.595,560,,15.595,570
15.61,362,,15.61,521,,15.61,524
15.625,358,,15.625,510,,15.625,537
15.64,372,,15.64,521,,15.64,543
15.655,362,,15.655,563,,15.655,542
15.67,345,,15.67,594,,15.67,555
15.685,348,,15.685,582,,15.685,516
15.7,369,,15.7,547,,15.7,520
15.715,371,,15.715,576,,15.715,515
15.73,372,,15.73,598,,15.73,531
15.745,362,,15.745,560,,15.745,542
15.76,352,,15.76,586,,15.76,538
15.775,345,,15.775,569,,15.775,511
15.79,375,,15.79,573,,15.79,523
15.805,356,,15.805,587,,15.805,520
15.82,354,,15.82,642,,15.82,547
15.835,364,,15.835,654,,15.835,526
15.85,394,,15.85,660,,15.85,543
15.865,380,,15.865,654,,15.865,500
15.88,363,,15.88,688,,15.88,554
15.895,350,,15.895,655,,15.895,553
15.91,342,,15.91,701,,15.91,550
15.925,379,,15.925,710,,15.925,538
15.94,377,,15.94,674,,15.94,488
15.955,336,,15.955,708,,15.955,544
15.97,335,,15.97,745,,15.97,534
15.985,358,,15.985,747,,15.985,513
16,375,,16,775,,16,519
16.015,364,,16.015,738,,16.015,521
16.03,366,,16.03,732,,16.03,520
16.045,373,,16.045,755,,16.045,512
16.06,364,,16.06,805,,16.06,544
16.075,347,,16.075,799,,16.075,543
16.09,384,,16.09,827,,16.09,510
16.105,383,,16.105,802,,16.105,527
16.12,352,,16.12,848,,16.12,516
16.135,343,,16.135,837,,16.135,508
16.15,325,,16.15,811,,16.15,537
16.165,349,,16.165,824,,16.165,513
16.18,361,,16.18,827,,16.18,489
16.195,359,,16.195,834,,16.195,487
16.21,319,,16.21,849,,16.21,519
16.225,344,,16.225,831,,16.225,509
16.24,388,,16.24,837,,16.24,495
16.255,380,,16.255,824,,16.255,498
16.27,347,,16.27,845,,16.27,509
16.285,382,,16.285,861,,16.285,502
16.3,376,,16.3,810,,16.3,528
16.315,368,,16.315,837,,16.315,527
16.33,367,,16.33,816,,16.33,510
16.345,350,,16.345,799,,16.345,525
16.36,391,,16.36,815,,16.36,505
16.375,370,,16.375,766,,16.375,474
16.39,357,,16.39,687,,16.39,484
16.405,341,,16.405,708,,16.405,510
16.42,385,,16.42,701,,16.42,523
16.435,356,,16.435,691,,16.435,527
16.45,352,,16.45,697,,16.45,543
16.465,362,,16.465,684,,16.465,519
16.48,352,,16.48,630,,16.48,512
16.495,371,,16.495,641,,16.495,520
16.51,375,,16.51,661,,16.51,547
16.525,361,,16.525,624,,16.525,521
16.54,356,,16.54,577,,16.54,525
16.555,343,,16.555,607,,16.555,504
16.57,344,,16.57,600,,16.57,483
16.585,354,,16.585,548,,16.585,503
16.6,372,,16.6,543,,16.6,490
16.615,340,,16.615,538,,16.615,477
16.63,323,,16.63,569,,16.63,515
16.645,354,,16.645,556,,16.645,497
16.66,359,,16.66,568,,16.66,504
16.675,360,,16.675,546,,16.675,541
16.69,356,,16.69,534,,16.69,545
16.705,365,,16.705,501,,16.705,533
16.72,359,,16.72,495,,16.72,548
16.735,375,,16.735,499,,16.735,507
16.75,357,,16.75,506,,16.75,508
16.765,353,,16.765,507,,16.765,488
16.78,342,,16.78,527,,16.78,494
16.795,366,,16.795,540,,16.795,473
16.81,333,,16.81,506,,16.81,487
16.825,366,,16.825,502,,16.825,491
16.84,348,,16.84,510,,16.84,503
16.855,367,,16.855,485,,16.855,504
16.87,351,,16.87,504,,16.87,497
16.885,345,,16.885,517,,16.885,525
16.9,318,,16.9,515,,16.9,490
16.915,322,,16.915,471,,16.915,505
16.93,343,,16.93,481,,16.93,505
16.945,368,,16.945,482,,16.945,474
16.96,344,,16.96,496,,16.96,494
16.975,345,,16.975,488,,16.975,516
16.99,342,,16.99,483,,16.99,500
17.005,332,,17.005,491,,17.005,517
17.02,352,,17.02,489,,17.02,559
17.035,361,,17.035,495,,17.035,533
17.05,328,,17.05,488,,17.05,511
17.065,348,,17.065,498,,17.065,523
17.08,353,,17.08,481,,17.08,526
17.095,379,,17.095,457,,17.095,540
17.11,315,,17.11,472,,17.11,506
17.125,336,,17.125,513,,17.125,498
17.14,329,,17.14,473,,17.14,477
17.155,334,,17.155,461,,17.155,485
17.17,336,,17.17,477,,17.17,465
17.185,368,,17.185,467,,17.185,480
17.2,344,,17.2,450,,17.2,465
17.215,354,,17.215,472,,17.215,501
17.23,342,,17.23,470,,17.23,460
17.245,333,,17.245,466,,17.245,453
17.26,358,,17.26,481,,17.26,509
17.275,354,,17.275,463,,17.275,484
17.29,342,,17.29,432,,17.29,483
17.305,363,,17.305,479,,17.305,502
17.32,342,,17.32,475,,17.32,519
17.335,332,,17.335,472,,17.335,525
17.35,329,,17.35,451,,17.35,506
17.365,329,,17.365,489,,17.365,514
17.38,344,,17.38,460,,17.38,482
17.395,329,,17.395,436,,17.395,501
17.41,382,,17.41,474,,17.41,523
17.425,367,,17.425,463,,17.425,504
17.44,359,,17.44,447,,17.44,504
17.455,356,,17.455,462,,17.455,506
17.47,339,,17.47,455,,17.47,486
17.485,326,,17.485,440,,17.485,465
17.5,346,,17.5,463,,17.5,490
17.515,350,,17.515,432,,17.515,500
17.53,338,,17.53,427,,17.53,479
17.545,357,,17.545,409,,17.545,471
17.56,341,,17.56,444,,17.56,494
17.575,328,,17.575,453,,17.575,499
17.59,318,,17.59,467,,17.59,471
17.605,349,,17.605,472,,17.605,467
17.62,339,,17.62,464,,17.62,497
17.635,337,,17.635,429,,17.635,493
17.65,344,,17.65,448,,17.65,505
17.665,331,,17.665,468,,17.665,491
17.68,320,,17.68,476,,17.68,462
17.695,331,,17.695,451,,17.695,478
17.71,334,,17.71,434,,17.71,496
17.725,335,,17.725,438,,17.725,469
17.74,313,,17.74,490,,17.74,475
17.755,312,,17.755,458,,17.755,482
17.77,321,,17.77,459,,17.77,463
17.785,323,,17.785,426,,17.785,440
17.8,342,,17.8,427,,17.8,463
17.815,344,,17.815,451,,17.815,473
17.83,324,,17.83,468,,17.83,514
17.845,339,,17.845,493,,17.845,503
17.86,318,,17.86,431,,17.86,500
17.875,327,,17.875,407,,17.875,477
17.89,329,,17.89,430,,17.89,481
17.905,300,,17.905,422,,17.905,455
17.92,326,,17.92,397,,17.92,454
17.935,322,,17.935,423,,17.935,481
17.95,299,,17.95,440,,17.95,478
17.965,295,,17.965,422,,17.965,524
17.98,302,,17.98,416,,17.98,461
17.995,320,,17.995,431,,17.995,482
18.01,312,,18.01,428,,18.01,473
18.025,324,,18.025,414,,18.025,467
18.04,317,,18.04,409,,18.04,479
18.055,313,,18.055,419,,18.055,464
18.07,294,,18.07,436,,18.07,448
18.085,312,,18.085,440,,18.085,475
18.1,336,,18.1,445,,18.1,473
18.115,325,,18.115,452,,18.115,493
18.13,326,,18.13,468,,18.13,474
18.145,303,,18.145,463,,18.145,459
18.16,314,,18.16,461,,18.16,476
18.175,314,,18.175,434,,18.175,465
18.19,318,,18.19,406,,18.19,447
18.205,337,,18.205,397,,18.205,447
18.22,333,,18.22,421,,18.22,440
18.235,307,,18.235,446,,18.235,461
18.25,323,,18.25,459,,18.25,445
18.265,295,,18.265,422,,18.265,435
18.28,318,,18.28,438,,18.28,472
18.295,284,,18.295,424,,18.295,461
18.31,312,,18.31,425,,18.31,479
18.325,316,,18.325,437,,18.325,478
18.34,309,,18.34,437,,18.34,459
18.355,314,,18.355,431,,18.355,452
18.37,306,,18.37,430,,18.37,460
18.385,317,,18.385,443,,18.385,477
18.4,320,,18.4,416,,18.4,463
18.415,326,,18.415,425,,18.415,471
18.43,299,,18.43,430,,18.43,482
18.445,310,,18.445,429,,18.445,448
18.46,312,,18.46,441,,18.46,445
18.475,310,,18.475,418,,18.475,449
18.49,297,,18.49,454,,18.49,450
18.505,281,,18.505,444,,18.505,461
18.52,337,,18.52,391,,18.52,457
18.535,308,,18.535,386,,18.535,442
18.55,304,,18.55,427,,18.55,434
18.565,287,,18.565,439,,18.565,416
18.58,293,,18.58,458,,18.58,446
18.595,328,,18.595,407,,18.595,448
18.61,345,,18.61,425,,18.61,476
18.625,326,,18.625,427,,18.625,469
18.64,312,,18.64,451,,18.64,446
18.655,287,,18.655,427,,18.655,427
18.67,323,,18.67,443,,18.67,424
18.685,289,,18.685,437,,18.685,461
18.7,302,,18.7,434,,18.7,457
18.715,311,,18.715,434,,18.715,435
18.73,320,,18.73,405,,18.73,431
18.745,312,,18.745,416,,18.745,436
18.76,310,,18.76,438,,18.76,411
18.775,364,,18.775,432,,18.775,431
18.79,338,,18.79,415,,18.79,442
18.805,300,,18.805,438,,18.805,464
18.82,299,,18.82,442,,18.82,432
18.835,307,,18.835,461,,18.835,475
18.85,315,,18.85,428,,18.85,446
18.865,304,,18.865,384,,18.865,438
18.88,300,,18.88,422,,18.88,470
18.895,301,,18.895,438,,18.895,455
18.91,301,,18.91,413,,18.91,438
18.925,319,,18.925,406,,18.925,438
18.94,296,,18.94,415,,18.94,440
18.955,316,,18.955,409,,18.955,451
18.97,346,,18.97,450,,18.97,457
18.985,318,,18.985,434,,18.985,464
19,315,,19,440,,19,466
19.015,302,,19.015,429,,19.015,435
19.03,300,,19.03,415,,19.03,441
19.045,279,,19.045,424,,19.045,468
19.06,294,,19.06,412,,19.06,430
19.075,304,,19.075,394,,19.075,452
19.09,309,,19.09,393,,19.09,454
19.105,298,,19.105,389,,19.105,468
19.12,310,,19.12,406,,19.12,438
19.135,303,,19.135,408,,19.135,401
19.15,296,,19.15,418,,19.15,427
19.165,313,,19.165,405,,19.165,441
19.18,304,,19.18,425,,19.18,439
19.195,295,,19.195,393,,19.195,452
19.21,301,,19.21,371,,19.21,443
19.225,316,,19.225,394,,19.225,452
19.24,335,,19.24,427,,19.24,455
19.255,304,,19.255,416,,19.255,425
19.27,295,,19.27,384,,19.27,412
19.285,301,,19.285,379,,19.285,443
19.3,298,,19.3,396,,19.3,422
19.315,262,,19.315,415,,19.315,416
19.33,287,,19.33,412,,19.33,398
19.345,301,,19.345,399,,19.345,404
19.36,311,,19.36,398,,19.36,432
19.375,302,,19.375,381,,19.375,451
19.39,312,,19.39,403,,19.39,428
19.405,316,,19.405,417,,19.405,429
19.42,307,,19.42,401,,19.42,435
19.435,300,,19.435,415,,19.435,427
19.45,285,,19.45,397,,19.45,441
19.465,300,,19.465,418,,19.465,407
19.48,306,,19.48,412,,19.48,414
19.495,259,,19.495,426,,19.495,454
19.51,272,,19.51,386,,19.51,440
19.525,300,,19.525,386,,19.525,416
19.54,284,,19.54,400,,19.54,442
19.555,290,,19.555,418,,19.555,459
19.57,310,,19.57,417,,19.57,441
19.585,299,,19.585,391,,19.585,442
19.6,316,,19.6,382,,19.6,449
19.615,294,,19.615,411,,19.615,448
19.63,307,,19.63,399,,19.63,450
19.645,316,,19.645,388,,19.645,439
19.66,289,,19.66,389,,19.66,424
19.675,305,,19.675,407,,19.675,438
19.69,301,,19.69,394,,19.69,434
19.705,309,,19.705,383,,19.705,419
19.72,303,,19.72,378,,19.72,404
19.735,294,,19.735,398,,19.735,438
19.75,307,,19.75,419,,19.75,444
19.765,312,,19.765,396,,19.765,424
19.78,292,,19.78,399,,19.78,443
19.795,271,,19.795,411,,19.795,433
19.81,305,,19.81,429,,19.81,422
19.825,298,,19.825,395,,19.825,423
19.84,279,,19.84,410,,19.84,419
19.855,305,,19.855,416,,19.855,438
19.87,303,,19.87,416,,19.87,421
19.885,282,,19.885,383,,19.885,399
19.9,258,,19.9,388,,19.9,411
19.915,268,,19.915,397,,19.915,424
19.93,307,,19.93,421,,19.93,436
19.945,287,,19.945,413,,19.945,473
19.96,286,,19.96,411,,19.96,451
19.975,276,,19.975,399,,19.975,418
19.99,286,,19.99,439,,19.99,402
20.005,309,,20.005,420,,20.005,454
20.02,301,,20.02,389,,20.02,419
20.035,272,,20.035,412,,20.035,405
20.05,301,,20.05,403,,20.05,412
20.065,294,,20.065,391,,20.065,449
20.08,313,,20.08,378,,20.08,418
20.095,323,,20.095,369,,20.095,432
20.11,285,,20.11,375,,20.11,434
20.125,286,,20.125,392,,20.125,423
20.14,297,,20.14,375,,20.14,408
20.155,279,,20.155,366,,20.155,411
20.17,273,,20.17,367,,20.17,432
20.185,306,,20.185,386,,20.185,422
20.2,290,,20.2,363,,20.2,407
20.215,311,,20.215,396,,20.215,431
20.23,304,,20.23,419,,20.23,435
20.245,294,,20.245,396,,20.245,425
20.26,300,,20.26,394,,20.26,416
20.275,300,,20.275,362,,20.275,396
20.29,281,,20.29,423,,20.29,418
20.305,296,,20.305,392,,20.305,414
20.32,286,,20.32,406,,20.32,413
20.335,321,,20.335,368,,20.335,450
20.35,301,,20.35,362,,20.35,440
20.365,325,,20.365,409,,20.365,434
20.38,306,,20.38,401,,20.38,463
20.395,274,,20.395,382,,20.395,434
20.41,265,,20.41,371,,20.41,423
20.425,279,,20.425,412,,20.425,445
20.44,262,,20.44,398,,20.44,443
20.455,273,,20.455,394,,20.455,442
20.47,274,,20.47,409,,20.47,434
20.485,300,,20.485,374,,20.485,422
20.5,292,,20.5,383,,20.5,422
20.515,286,,20.515,397,,20.515,436
20.53,294,,20.53,403,,20.53,436
20.545,295,,20.545,406,,20.545,434
20.56,305,,20.56,381,,20.56,441
20.575,279,,20.575,368,,20.575,449
20.59,292,,20.59,390,,20.59,441
20.605,305,,20.605,409,,20.605,441
20.62,310,,20.62,379,,20.62,421
20.635,310,,20.635,358,,20.635,435
20.65,277,,20.65,374,,20.65,435
20.665,285,,20.665,379,,20.665,436
20.68,265,,20.68,381,,20.68,448
20.695,285,,20.695,367,,20.695,439
20.71,267,,20.71,373,,20.71,433
20.725,290,,20.725,384,,20.725,430
20.74,291,,20.74,410,,20.74,461
20.755,293,,20.755,409,,20.755,465
20.77,300,,20.77,411,,20.77,460
20.785,279,,20.785,408,,20.785,466
20.8,275,,20.8,387,,20.8,457
20.815,287,,20.815,359,,20.815,465
20.83,295,,20.83,417,,20.83,463
20.845,294,,20.845,410,,20.845,465
20.86,299,,20.86,378,,20.86,459
20.875,258,,20.875,422,,20.875,435
20.89,267,,20.89,389,,20.89,406
20.905,295,,20.905,369,,20.905,428
20.92,297,,20.92,381,,20.92,445
20.935,281,,20.935,395,,20.935,467
20.95,289,,20.95,415,,20.95,455
20.965,297,,20.965,372,,20.965,477
20.98,294,,20.98,379,,20.98,460
20.995,293,,20.995,372,,20.995,467
21.01,290,,21.01,377,,21.01,466
21.025,272,,21.025,392,,21.025,480
21.04,295,,21.04,397,,21.04,453
21.055,304,,21.055,411,,21.055,460
21.07,291,,21.07,388,,21.07,447
21.085,298,,21.085,368,,21.085,453
21.1,297,,21.1,367,,21.1,443
21.115,313,,21.115,408,,21.115,480
21.13,309,,21.13,349,,21.13,522
21.145,295,,21.145,373,,21.145,521
21.16,282,,21.16,376,,21.16,556
21.175,280,,21.175,402,,21.175,585
21.19,288,,21.19,379,,21.19,586
21.205,275,,21.205,401,,21.205,562
21.22,284,,21.22,380,,21.22,568
21.235,284,,21.235,390,,21.235,586
21.25,265,,21.25,372,,21.25,575
21.265,301,,21.265,374,,21.265,608
21.28,266,,21.28,359,,21.28,651
21.295,294,,21.295,357,,21.295,668
21.31,301,,21.31,388,,21.31,742
21.325,299,,21.325,381,,21.325,757
21.34,334,,21.34,378,,21.34,785
21.355,334,,21.355,396,,21.355,801
21.37,296,,21.37,397,,21.37,859
21.385,314,,21.385,384,,21.385,864
21.4,294,,21.4,373,,21.4,863
21.415,296,,21.415,371,,21.415,928
21.43,325,,21.43,387,,21.43,955
21.445,311,,21.445,380,,21.445,998
21.46,300,,21.46,374,,21.46,1007
21.475,310,,21.475,383,,21.475,1000
21.49,312,,21.49,367,,21.49,993
21.505,317,,21.505,373,,21.505,1046
21.52,321,,21.52,384,,21.52,1031
21.535,311,,21.535,377,,21.535,1059
21.55,326,,21.55,387,,21.55,1085
21.565,337,,21.565,387,,21.565,1084
21.58,347,,21.58,375,,21.58,1070
21.595,321,,21.595,402,,21.595,1065
21.61,308,,21.61,385,,21.61,1028
21.625,363,,21.625,381,,21.625,1011
21.64,355,,21.64,369,,21.64,984
21.655,338,,21.655,384,,21.655,975
21.67,318,,21.67,390,,21.67,964
21.685,345,,21.685,395,,21.685,1004
21.7,365,,21.7,413,,21.7,1039
21.715,339,,21.715,395,,21.715,995
21.73,359,,21.73,380,,21.73,978
21.745,373,,21.745,389,,21.745,975
21.76,384,,21.76,399,,21.76,979
21.775,356,,21.775,419,,21.775,971
21.79,375,,21.79,417,,21.79,949
21.805,363,,21.805,388,,21.805,973
21.82,386,,21.82,382,,21.82,985
21.835,414,,21.835,374,,21.835,972
21.85,426,,21.85,395,,21.85,1058
21.865,422,,21.865,416,,21.865,1052
21.88,424,,21.88,406,,21.88,1056
21.895,452,,21.895,421,,21.895,1154
21.91,446,,21.91,411,,21.91,1145
21.925,455,,21.925,428,,21.925,1169
21.94,482,,21.94,429,,21.94,1299
21.955,516,,21.955,414,,21.955,1312
21.97,553,,21.97,403,,21.97,1295
21.985,551,,21.985,431,,21.985,1362
22,573,,22,427,,22,1367
22.015,546,,22.015,433,,22.015,1391
22.03,581,,22.03,430,,22.03,1389
22.045,600,,22.045,446,,22.045,1372
22.06,671,,22.06,400,,22.06,1333
22.075,728,,22.075,384,,22.075,1363
22.09,803,,22.09,420,,22.09,1336
22.105,856,,22.105,474,,22.105,1362
22.12,894,,22.12,466,,22.12,1328
22.135,928,,22.135,429,,22.135,1335
22.15,974,,22.15,478,,22.15,1284
22.165,1070,,22.165,473,,22.165,1240
22.18,1164,,22.18,453,,22.18,1201
22.195,1226,,22.195,483,,22.195,1219
22.21,1279,,22.21,519,,22.21,1109
22.225,1421,,22.225,494,,22.225,1038
22.24,1513,,22.24,496,,22.24,1044
22.255,1650,,22.255,512,,22.255,961
22.27,1768,,22.27,509,,22.27,918
22.285,1879,,22.285,538,,22.285,864
22.3,1983,,22.3,546,,22.3,856
22.315,2128,,22.315,572,,22.315,851
22.33,2281,,22.33,581,,22.33,766
22.345,2324,,22.345,621,,22.345,726
22.36,2459,,22.36,623,,22.36,711
22.375,2607,,22.375,607,,22.375,711
22.39,2665,,22.39,654,,22.39,666
22.405,2768,,22.405,719,,22.405,613
22.42,2802,,22.42,757,,22.42,595
22.435,2883,,22.435,734,,22.435,528
22.45,2888,,22.45,792,,22.45,487
22.465,2882,,22.465,832,,22.465,516
22.48,2968,,22.48,881,,22.48,508
22.495,2933,,22.495,970,,22.495,497
22.51,2905,,22.51,980,,22.51,475
22.525,2873,,22.525,1085,,22.525,460
22.54,2786,,22.54,1183,,22.54,451
22.555,2803,,22.555,1239,,22.555,410
22.57,2705,,22.57,1340,,22.57,422
22.585,2595,,22.585,1431,,22.585,423
22.6,2527,,22.6,1453,,22.6,431
22.615,2457,,22.615,1633,,22.615,439
22.63,2297,,22.63,1781,,22.63,413
22.645,2148,,22.645,1852,,22.645,404
22.66,2087,,22.66,1907,,22.66,389
22.675,2054,,22.675,2176,,22.675,405
22.69,1926,,22.69,2287,,22.69,403
22.705,1807,,22.705,2478,,22.705,386
22.72,1652,,22.72,2626,,22.72,360
22.735,1593,,22.735,2767,,22.735,368
22.75,1472,,22.75,2903,,22.75,389
22.765,1394,,22.765,3013,,22.765,394
22.78,1268,,22.78,3120,,22.78,377
22.795,1192,,22.795,3304,,22.795,362
22.81,1097,,22.81,3426,,22.81,373
22.825,1042,,22.825,3565,,22.825,392
22.84,955,,22.84,3570,,22.84,362
22.855,931,,22.855,3721,,22.855,327
22.87,872,,22.87,4015,,22.87,373
22.885,779,,22.885,4018,,22.885,373
22.9,703,,22.9,4121,,22.9,378
22.915,660,,22.915,4119,,22.915,364
22.93,646,,22.93,4074,,22.93,361
22.945,617,,22.945,4049,,22.945,337
22.96,567,,22.96,4007,,22.96,328
22.975,536,,22.975,3967,,22.975,365
22.99,513,,22.99,3974,,22.99,361
23.005,510,,23.005,3869,,23.005,318
23.02,443,,23.02,3773,,23.02,330
23.035,445,,23.035,3634,,23.035,314
23.05,427,,23.05,3463,,23.05,330
23.065,418,,23.065,3506,,23.065,339
23.08,438,,23.08,3290,,23.08,363
23.095,407,,23.095,3202,,23.095,328
23.11,404,,23.11,3021,,23.11,326
23.125,381,,23.125,2816,,23.125,341
23.14,372,,23.14,2616,,23.14,319
23.155,351,,23.155,2459,,23.155,315
23.17,347,,23.17,2311,,23.17,309
23.185,321,,23.185,2180,,23.185,323
23.2,344,,23.2,2068,,23.2,320
23.215,329,,23.215,1966,,23.215,309
23.23,330,,23.23,1752,,23.23,304
23.245,328,,23.245,1608,,23.245,316
23.26,326,,23.26,1556,,23.26,340
23.275,324,,23.275,1411,,23.275,338
23.29,315,,23.29,1296,,23.29,340
23.305,291,,23.305,1240,,23.305,301
23.32,283,,23.32,1160,,23.32,320
23.335,283,,23.335,1088,,23.335,308
23.35,294,,23.35,1024,,23.35,302
23.365,269,,23.365,967,,23.365,320
23.38,251,,23.38,894,,23.38,345
23.395,280,,23.395,797,,23.395,335
23.41,267,,23.41,763,,23.41,329
23.425,272,,23.425,721,,23.425,332
23.44,260,,23.44,683,,23.44,312
23.455,279,,23.455,664,,23.455,316
23.47,238,,23.47,642,,23.47,299
23.485,261,,23.485,598,,23.485,323
23.5,268,,23.5,552,,23.5,367
23.515,256,,23.515,576,,23.515,340
23.53,244,,23.53,553,,23.53,330
23.545,232,,23.545,512,,23.545,295
23.56,238,,23.56,515,,23.56,297
23.575,258,,23.575,506,,23.575,334
23.59,245,,23.59,482,,23.59,322
23.605,242,,23.605,459,,23.605,331
23.62,249,,23.62,455,,23.62,330
23.635,239,,23.635,455,,23.635,319
23.65,253,,23.65,434,,23.65,290
23.665,260,,23.665,436,,23.665,292
23.68,267,,23.68,417,,23.68,318
23.695,255,,23.695,401,,23.695,328
23.71,248,,23.71,429,,23.71,309
23.725,252,,23.725,403,,23.725,306
23.74,263,,23.74,385,,23.74,312
23.755,257,,23.755,360,,23.755,285
23.77,233,,23.77,377,,23.77,288
23.785,218,,23.785,357,,23.785,311
23.8,224,,23.8,370,,23.8,275
23.815,223,,23.815,367,,23.815,275
23.83,224,,23.83,345,,23.83,289
23.845,234,,23.845,367,,23.845,306
23.86,232,,23.86,364,,23.86,276
23.875,234,,23.875,349,,23.875,301
23.89,227,,23.89,351,,23.89,301
23.905,226,,23.905,359,,23.905,288
23.92,227,,23.92,339,,23.92,304
23.935,225,,23.935,360,,23.935,291
23.95,260,,23.95,332,,23.95,273
23.965,249,,23.965,344,,23.965,299
23.98,246,,23.98,329,,23.98,318
23.995,217,,23.995,319,,23.995,311
24.01,211,,24.01,337,,24.01,294
24.025,213,,24.025,322,,24.025,276
24.04,218,,24.04,343,,24.04,297
24.055,222,,24.055,346,,24.055,304
24.07,223,,24.07,315,,24.07,306
24.085,214,,24.085,329,,24.085,314
24.1,199,,24.1,325,,24.1,313
24.115,220,,24.115,314,,24.115,291
24.13,211,,24.13,301,,24.13,284
24.145,211,,24.145,301,,24.145,301
24.16,223,,24.16,318,,24.16,292
24.175,211,,24.175,314,,24.175,294
24.19,207,,24.19,312,,24.19,303
24.205,210,,24.205,325,,24.205,277
24.22,223,,24.22,290,,24.22,291
24.235,223,,24.235,308,,24.235,306
24.25,231,,24.25,293,,24.25,289
24.265,211,,24.265,317,,24.265,294
24.28,213,,24.28,326,,24.28,293
24.295,222,,24.295,305,,24.295,280
24.31,221,,24.31,290,,24.31,281
24.325,205,,24.325,303,,24.325,305
24.34,221,,24.34,296,,24.34,292
24.355,197,,24.355,283,,24.355,323
24.37,205,,24.37,294,,24.37,304
24.385,219,,24.385,319,,24.385,285
24.4,201,,24.4,310,,24.4,287
24.415,202,,24.415,305,,24.415,288
24.43,212,,24.43,320,,24.43,314
24.445,217,,24.445,299,,24.445,327
24.46,232,,24.46,302,,24.46,304
24.475,215,,24.475,316,,24.475,294
24.49,213,,24.49,316,,24.49,307
24.505,217,,24.505,283,,24.505,281
24.52,197,,24.52,288,,24.52,277
24.535,196,,24.535,312,,24.535,298
24.55,204,,24.55,303,,24.55,286
24.565,206,,24.565,292,,24.565,317
24.58,203,,24.58,278,,24.58,323
24.595,204,,24.595,284,,24.595,322
24.61,196,,24.61,285,,24.61,321
24.625,193,,24.625,272,,24.625,325
24.64,213,,24.64,276,,24.64,317
24.655,203,,24.655,305,,24.655,347
24.67,222,,24.67,291,,24.67,333
24.685,213,,24.685,276,,24.685,324
24.7,203,,24.7,281,,24.7,362
24.715,188,,24.715,312,,24.715,362
24.73,199,,24.73,307,,24.73,338
24.745,215,,24.745,303,,24.745,326
24.76,227,,24.76,285,,24.76,355
24.775,205,,24.775,294,,24.775,411
24.79,210,,24.79,286,,24.79,400
24.805,200,,24.805,297,,24.805,366
24.82,202,,24.82,315,,24.82,394
24.835,214,,24.835,318,,24.835,397
24.85,205,,24.85,307,,24.85,424
24.865,197,,24.865,273,,24.865,452
24.88,198,,24.88,305,,24.88,435
24.895,211,,24.895,282,,24.895,401
24.91,212,,24.91,278,,24.91,405
24.925,203,,24.925,310,,24.925,415
24.94,186,,24.94,271,,24.94,401
24.955,186,,24.955,281,,24.955,377
24.97,220,,24.97,269,,24.97,385
24.985,202,,24.985,267,,24.985,416
25,207,,25,270,,25,388
25.015,221,,25.015,266,,25.015,372
25.03,205,,25.03,261,,25.03,371
25.045,202,,25.045,289,,25.045,352
25.06,201,,25.06,274,,25.06,349
25.075,214,,25.075,276,,25.075,333
25.09,208,,25.09,262,,25.09,338
25.105,196,,25.105,270,,25.105,369
25.12,217,,25.12,272,,25.12,344
25.135,204,,25.135,266,,25.135,328
25.15,205,,25.15,259,,25.15,321
25.165,212,,25.165,243,,25.165,321
25.18,212,,25.18,241,,25.18,300
25.195,211,,25.195,249,,25.195,315
25.21,196,,25.21,283,,25.21,327
25.225,222,,25.225,263,,25.225,324
25.24,226,,25.24,279,,25.24,312
25.255,205,,25.255,283,,25.255,268
25.27,221,,25.27,272,,25.27,296
25.285,215,,25.285,263,,25.285,295
25.3,222,,25.3,270,,25.3,284
25.315,221,,25.315,241,,25.315,279
25.33,225,,25.33,253,,25.33,262
25.345,226,,25.345,283,,25.345,255
25.36,227,,25.36,282,,25.36,279
25.375,219,,25.375,273,,25.375,274
25.39,250,,25.39,253,,25.39,266
25.405,231,,25.405,269,,25.405,274
25.42,254,,25.42,272,,25.42,295
25.435,242,,25.435,268,,25.435,288
25.45,260,,25.45,284,,25.45,263
25.465,234,,25.465,252,,25.465,241
25.48,259,,25.48,273,,25.48,266
25.495,294,,25.495,258,,25.495,249
25.51,276,,25.51,242,,25.51,255
25.525,299,,25.525,246,,25.525,250
25.54,295,,25.54,228,,25.54,271
25.555,302,,25.555,254,,25.555,273
25.57,308,,25.57,250,,25.57,243
25.585,295,,25.585,270,,25.585,237
25.6,335,,25.6,258,,25.6,254
25.615,384,,25.615,268,,25.615,258
25.63,381,,25.63,271,,25.63,245
25.645,370,,25.645,282,,25.645,254
25.66,378,,25.66,271,,25.66,236
25.675,394,,25.675,284,,25.675,252
25.69,434,,25.69,272,,25.69,257
25.705,477,,25.705,300,,25.705,260
25.72,471,,25.72,311,,25.72,264
25.735,465,,25.735,251,,25.735,278
25.75,535,,25.75,278,,25.75,255
25.765,553,,25.765,293,,25.765,245
25.78,583,,25.78,273,,25.78,266
25.795,582,,25.795,282,,25.795,255
25.81,593,,25.81,280,,25.81,249
25.825,652,,25.825,296,,25.825,268
25.84,683,,25.84,285,,25.84,265
25.855,747,,25.855,291,,25.855,248
25.87,757,,25.87,299,,25.87,236
25.885,810,,25.885,309,,25.885,253
25.9,802,,25.9,309,,25.9,247
25.915,857,,25.915,319,,25.915,224
25.93,888,,25.93,291,,25.93,259
25.945,865,,25.945,311,,25.945,249
25.96,849,,25.96,300,,25.96,239
25.975,870,,25.975,302,,25.975,238
25.99,936,,25.99,337,,25.99,257
26.005,887,,26.005,347,,26.005,262
26.02,899,,26.02,342,,26.02,263
26.035,917,,26.035,364,,26.035,233
26.05,866,,26.05,370,,26.05,220
26.065,902,,26.065,378,,26.065,230
26.08,871,,26.08,396,,26.08,245
26.095,836,,26.095,409,,26.095,263
26.11,807,,26.11,426,,26.11,243
26.125,780,,26.125,473,,26.125,244
26.14,761,,26.14,455,,26.14,229
26.155,708,,26.155,458,,26.155,260
26.17,688,,26.17,492,,26.17,256
26.185,687,,26.185,534,,26.185,260
26.2,661,,26.2,560,,26.2,263
26.215,627,,26.215,597,,26.215,254
26.23,583,,26.23,642,,26.23,227
26.245,574,,26.245,684,,26.245,239
26.26,537,,26.26,687,,26.26,241
26.275,494,,26.275,713,,26.275,220
26.29,482,,26.29,723,,26.29,224
26.305,468,,26.305,753,,26.305,229
26.32,428,,26.32,745,,26.32,252
26.335,404,,26.335,843,,26.335,237
26.35,408,,26.35,838,,26.35,248
26.365,382,,26.365,883,,26.365,238
26.38,376,,26.38,1009,,26.38,230
26.395,327,,26.395,950,,26.395,213
26.41,328,,26.41,979,,26.41,224
26.425,319,,26.425,1005,,26.425,230
26.44,285,,26.44,1055,,26.44,226
26.455,301,,26.455,1032,,26.455,236
26.47,305,,26.47,998,,26.47,237
26.485,256,,26.485,1088,,26.485,242
26.5,255,,26.5,1089,,26.5,250
26.515,255,,26.515,1070,,26.515,231
26.53,255,,26.53,1089,,26.53,241
26.545,252,,26.545,1049,,26.545,222
26.56,249,,26.56,1044,,26.56,242
26.575,241,,26.575,1084,,26.575,248
26.59,239,,26.59,1087,,26.59,253
26.605,211,,26.605,1019,,26.605,258
26.62,204,,26.62,1005,,26.62,241
26.635,226,,26.635,950,,26.635,248
26.65,200,,26.65,970,,26.65,232
26.665,200,,26.665,947,,26.665,222
26.68,217,,26.68,860,,26.68,234
26.695,228,,26.695,819,,26.695,254
26.71,199,,26.71,775,,26.71,239
26.725,187,,26.725,774,,26.725,234
26.74,189,,26.74,683,,26.74,215
26.755,198,,26.755,666,,26.755,236
26.77,184,,26.77,640,,26.77,232
26.785,179,,26.785,633,,26.785,234
26.8,175,,26.8,589,,26.8,234
26.815,178,,26.815,553,,26.815,220
26.83,158,,26.83,510,,26.83,232
26.845,159,,26.845,491,,26.845,250
26.86,182,,26.86,496,,26.86,232
26.875,184,,26.875,487,,26.875,224
26.89,190,,26.89,459,,26.89,222
26.905,180,,26.905,427,,26.905,239
26.92,188,,26.92,407,,26.92,235
26.935,179,,26.935,402,,26.935,220
26.95,171,,26.95,379,,26.95,218
26.965,175,,26.965,386,,26.965,205
26.98,194,,26.98,345,,26.98,242
26.995,184,,26.995,335,,26.995,225
27.01,166,,27.01,312,,27.01,212
27.025,177,,27.025,310,,27.025,211
27.04,176,,27.04,330,,27.04,244
27.055,182,,27.055,299,,27.055,223
27.07,183,,27.07,303,,27.07,228
27.085,175,,27.085,321,,27.085,227
27.1,166,,27.1,295,,27.1,218
27.115,158,,27.115,292,,27.115,243
27.13,155,,27.13,276,,27.13,232
27.145,173,,27.145,302,,27.145,205
27.16,181,,27.16,299,,27.16,204
27.175,173,,27.175,272,,27.175,219
27.19,170,,27.19,265,,27.19,224
27.205,162,,27.205,271,,27.205,219
27.22,177,,27.22,259,,27.22,217
27.235,173,,27.235,255,,27.235,217
27.25,184,,27.25,260,,27.25,223
27.265,168,,27.265,253,,27.265,226
27.28,152,,27.28,252,,27.28,214
27.295,156,,27.295,239,,27.295,210
27.31,159,,27.31,261,,27.31,227
27.325,171,,27.325,262,,27.325,237
27.34,161,,27.34,254,,27.34,213
27.355,175,,27.355,258,,27.355,232
27.37,176,,27.37,270,,27.37,248
27.385,175,,27.385,240,,27.385,266
27.4,155,,27.4,227,,27.4,233
27.415,164,,27.415,235,,27.415,230
27.43,155,,27.43,234,,27.43,247
27.445,145,,27.445,231,,27.445,239
27.46,148,,27.46,228,,27.46,247
27.475,174,,27.475,242,,27.475,221
27.49,154,,27.49,212,,27.49,206
27.505,126,,27.505,229,,27.505,224
27.52,148,,27.52,243,,27.52,208
27.535,155,,27.535,252,,27.535,199
27.55,162,,27.55,246,,27.55,205
27.565,177,,27.565,236,,27.565,226
27.58,153,,27.58,244,,27.58,245
27.595,162,,27.595,255,,27.595,231
27.61,164,,27.61,229,,27.61,241
27.625,150,,27.625,224,,27.625,243
27.64,183,,27.64,219,,27.64,224
27.655,163,,27.655,219,,27.655,227
27.67,157,,27.67,224,,27.67,232
27.685,140,,27.685,258,,27.685,211
27.7,146,,27.7,234,,27.7,205
27.715,165,,27.715,249,,27.715,220
27.73,156,,27.73,252,,27.73,225
27.745,145,,27.745,253,,27.745,253
27.76,156,,27.76,241,,27.76,234
27.775,146,,27.775,255,,27.775,208
27.79,156,,27.79,238,,27.79,225
27.805,159,,27.805,246,,27.805,233
27.82,143,,27.82,246,,27.82,234
27.835,154,,27.835,277,,27.835,233
27.85,161,,27.85,283,,27.85,229
27.865,158,,27.865,322,,27.865,228
27.88,148,,27.88,290,,27.88,222
27.895,145,,27.895,262,,27.895,210
27.91,134,,27.91,277,,27.91,208
27.925,140,,27.925,307,,27.925,226
27.94,165,,27.94,319,,27.94,226
27.955,177,,27.955,300,,27.955,243
27.97,174,,27.97,318,,27.97,245
27.985,162,,27.985,333,,27.985,229
28,162,,28,328,,28,233
28.015,175,,28.015,318,,28.015,234
28.03,145,,28.03,319,,28.03,254
28.045,155,,28.045,325,,28.045,256
28.06,146,,28.06,334,,28.06,223
28.075,154,,28.075,341,,28.075,252
28.09,146,,28.09,350,,28.09,236
28.105,148,,28.105,346,,28.105,235
28.12,144,,28.12,327,,28.12,232
28.135,160,,28.135,366,,28.135,256
28.15,149,,28.15,359,,28.15,284
28.165,152,,28.165,362,,28.165,294
28.18,168,,28.18,357,,28.18,289
28.195,156,,28.195,356,,28.195,281
28.21,144,,28.21,365,,28.21,271
28.225,139,,28.225,340,,28.225,263
28.24,147,,28.24,327,,28.24,287
28.255,153,,28.255,339,,28.255,282
28.27,151,,28.27,335,,28.27,294
28.285,151,,28.285,337,,28.285,295
28.3,148,,28.3,299,,28.3,299
28.315,149,,28.315,340,,28.315,269
28.33,165,,28.33,325,,28.33,272
28.345,147,,28.345,315,,28.345,264
28.36,147,,28.36,296,,28.36,281
28.375,164,,28.375,294,,28.375,281
28.39,170,,28.39,287,,28.39,288
28.405,161,,28.405,280,,28.405,253
28.42,147,,28.42,273,,28.42,248
28.435,161,,28.435,260,,28.435,287
28.45,157,,28.45,267,,28.45,243
28.465,175,,28.465,268,,28.465,249
28.48,154,,28.48,270,,28.48,222
28.495,156,,28.495,253,,28.495,220
28.51,158,,28.51,239,,28.51,254
28.525,159,,28.525,235,,28.525,261
28.54,143,,28.54,251,,28.54,255
28.555,153,,28.555,232,,28.555,261
28.57,156,,28.57,231,,28.57,234
28.585,157,,28.585,249,,28.585,230
28.6,148,,28.6,235,,28.6,251
28.615,170,,28.615,237,,28.615,241
28.63,166,,28.63,245,,28.63,230
28.645,157,,28.645,212,,28.645,216
28.66,167,,28.66,206,,28.66,229
28.675,184,,28.675,212,,28.675,216
28.69,158,,28.69,236,,28.69,240
28.705,154,,28.705,225,,28.705,221
28.72,156,,28.72,221,,28.72,213
28.735,146,,28.735,198,,28.735,211
28.75,151,,28.75,208,,28.75,201
28.765,151,,28.765,205,,28.765,209
28.78,145,,28.78,202,,28.78,223
28.795,161,,28.795,204,,28.795,229
28.81,175,,28.81,199,,28.81,219
28.825,154,,28.825,199,,28.825,225
28.84,158,,28.84,190,,28.84,223
28.855,138,,28.855,208,,28.855,211
28.87,154,,28.87,216,,28.87,209
28.885,161,,28.885,187,,28.885,204
28.9,145,,28.9,193,,28.9,227
28.915,155,,28.915,201,,28.915,232
28.93,155,,28.93,209,,28.93,229
28.945,153,,28.945,201,,28.945,235
28.96,143,,28.96,199,,28.96,211
28.975,147,,28.975,204,,28.975,223
28.99,142,,28.99,232,,28.99,217
29.005,139,,29.005,198,,29.005,222
29.02,145,,29.02,218,,29.02,205
29.035,143,,29.035,220,,29.035,209
29.05,140,,29.05,200,,29.05,222
29.065,128,,29.065,187,,29.065,212
29.08,140,,29.08,203,,29.08,216
29.095,133,,29.095,211,,29.095,197
29.11,139,,29.11,202,,29.11,192
29.125,149,,29.125,184,,29.125,194
29.14,149,,29.14,166,,29.14,221
29.155,139,,29.155,196,,29.155,232
29.17,140,,29.17,203,,29.17,243
29.185,138,,29.185,214,,29.185,228
29.2,146,,29.2,188,,29.2,230
29.215,126,,29.215,171,,29.215,219
29.23,141,,29.23,185,,29.23,227
29.245,149,,29.245,193,,29.245,229
29.26,160,,29.26,190,,29.26,245
29.275,145,,29.275,199,,29.275,234
29.29,137,,29.29,206,,29.29,208
29.305,157,,29.305,208,,29.305,206
29.32,151,,29.32,211,,29.32,209
29.335,139,,29.335,206,,29.335,205
29.35,153,,29.35,215,,29.35,194
29.365,154,,29.365,206,,29.365,200
29.38,142,,29.38,204,,29.38,203
29.395,148,,29.395,208,,29.395,187
29.41,152,,29.41,195,,29.41,202
29.425,156,,29.425,201,,29.425,202
29.44,139,,29.44,208,,29.44,218
29.455,128,,29.455,227,,29.455,227
29.47,133,,29.47,209,,29.47,215
29.485,156,,29.485,208,,29.485,216
29.5,151,,29.5,222,,29.5,216
29.515,130,,29.515,211,,29.515,229
29.53,141,,29.53,230,,29.53,225
29.545,159,,29.545,214,,29.545,238
29.56,138,,29.56,208,,29.56,217
29.575,145,,29.575,224,,29.575,223
29.59,144,,29.59,227,,29.59,203
29.605,140,,29.605,204,,29.605,206
29.62,120,,29.62,218,,29.62,202
29.635,152,,29.635,220,,29.635,216
29.65,138,,29.65,216,,29.65,205
29.665,130,,29.665,221,,29.665,221
29.68,141,,29.68,223,,29.68,192
29.695,128,,29.695,210,,29.695,213
29.71,140,,29.71,219,,29.71,211
29.725,160,,29.725,244,,29.725,215
29.74,142,,29.74,221,,29.74,218
29.755,137,,29.755,220,,29.755,207
29.77,138,,29.77,200,,29.77,207
29.785,163,,29.785,201,,29.785,195
29.8,160,,29.8,215,,29.8,218
29.815,160,,29.815,208,,29.815,215
29.83,147,,29.83,195,,29.83,220
29.845,141,,29.845,202,,29.845,204
29.86,137,,29.86,222,,29.86,192
29.875,144,,29.875,211,,29.875,225
29.89,146,,29.89,211,,29.89,237
29.905,151,,29.905,210,,29.905,211
29.92,143,,29.92,207,,29.92,223
29.935,132,,29.935,224,,29.935,204
29.95,146,,29.95,202,,29.95,207
29.965,132,,29.965,202,,29.965,216
29.98,125,,29.98,209,,29.98,207
29.995,145,,29.995,207,,29.995,225
30.01,168,,30.01,206,,30.01,232
30.025,150,,30.025,187,,30.025,234
30.04,128,,30.04,199,,30.04,215
30.055,128,,30.055,188,,30.055,210
30.07,130,,30.07,206,,30.07,208
30.085,150,,30.085,174,,30.085,203
30.1,152,,30.1,184,,30.1,202
30.115,145,,30.115,185,,30.115,218
30.13,154,,30.13,196,,30.13,205
30.145,136,,30.145,201,,30.145,215
30.16,137,,30.16,199,,30.16,217
30.175,153,,30.175,181,,30.175,196
30.19,144,,30.19,212,,30.19,224
30.205,138,,30.205,197,,30.205,222
30.22,130,,30.22,188,,30.22,228
30.235,139,,30.235,204,,30.235,225
30.25,120,,30.25,216,,30.25,215
30.265,134,,30.265,194,,30.265,217
30.28,138,,30.28,170,,30.28,244
30.295,136,,30.295,185,,30.295,230
30.31,144,,30.31,185,,30.31,226
30.325,141,,30.325,184,,30.325,233
30.34,119,,30.34,180,,30.34,232
30.355,142,,30.355,187,,30.355,205
30.37,130,,30.37,191,,30.37,245
30.385,122,,30.385,168,,30.385,261
30.4,130,,30.4,189,,30.4,256
30.415,129,,30.415,205,,30.415,256
30.43,119,,30.43,205,,30.43,254
30.445,136,,30.445,185,,30.445,263
30.46,129,,30.46,183,,30.46,280
30.475,131,,30.475,176,,30.475,280
30.49,138,,30.49,185,,30.49,287
30.505,123,,30.505,194,,30.505,301
30.52,134,,30.52,190,,30.52,294
30.535,138,,30.535,187,,30.535,276
30.55,137,,30.55,211,,30.55,296
30.565,119,,30.565,219,,30.565,293
30.58,131,,30.58,218,,30.58,307
30.595,130,,30.595,193,,30.595,336
30.61,139,,30.61,187,,30.61,365
30.625,142,,30.625,198,,30.625,331
30.64,131,,30.64,213,,30.64,338
30.655,153,,30.655,201,,30.655,381
30.67,133,,30.67,229,,30.67,405
30.685,127,,30.685,206,,30.685,448
30.7,144,,30.7,220,,30.7,458
30.715,147,,30.715,226,,30.715,484
30.73,130,,30.73,239,,30.73,492
30.745,137,,30.745,226,,30.745,501
30.76,155,,30.76,243,,30.76,511
30.775,137,,30.775,235,,30.775,569
30.79,140,,30.79,238,,30.79,584
30.805,136,,30.805,242,,30.805,630
30.82,138,,30.82,221,,30.82,621
30.835,125,,30.835,246,,30.835,676
30.85,122,,30.85,267,,30.85,697
30.865,151,,30.865,286,,30.865,742
30.88,127,,30.88,278,,30.88,766
30.895,136,,30.895,282,,30.895,814
30.91,143,,30.91,280,,30.91,793
30.925,132,,30.925,281,,30.925,782
30.94,130,,30.94,270,,30.94,784
30.955,136,,30.955,318,,30.955,839
30.97,128,,30.97,300,,30.97,866
30.985,132,,30.985,298,,30.985,823
31,125,,31,303,,31,789
31.015,133,,31.015,312,,31.015,806
31.03,123,,31.03,329,,31.03,768
31.045,131,,31.045,324,,31.045,756
31.06,137,,31.06,353,,31.06,745
31.075,129,,31.075,361,,31.075,742
31.09,146,,31.09,378,,31.09,712
31.105,140,,31.105,363,,31.105,684
31.12,138,,31.12,365,,31.12,641
31.135,124,,31.135,352,,31.135,646
31.15,156,,31.15,361,,31.15,631
31.165,137,,31.165,371,,31.165,593
31.18,130,,31.18,375,,31.18,570
31.195,135,,31.195,370,,31.195,543
31.21,127,,31.21,351,,31.21,517
31.225,126,,31.225,342,,31.225,498
31.24,139,,31.24,353,,31.24,465
31.255,145,,31.255,339,,31.255,455
31.27,140,,31.27,326,,31.27,448
31.285,126,,31.285,345,,31.285,423
31.3,135,,31.3,321,,31.3,402
31.315,120,,31.315,347,,31.315,403
31.33,126,,31.33,325,,31.33,360
31.345,120,,31.345,356,,31.345,347
31.36,128,,31.36,352,,31.36,333
31.375,126,,31.375,327,,31.375,322
31.39,121,,31.39,327,,31.39,329
31.405,133,,31.405,313,,31.405,311
31.42,148,,31.42,299,,31.42,275
31.435,137,,31.435,299,,31.435,300
31.45,122,,31.45,278,,31.45,309
31.465,119,,31.465,293,,31.465,288
31.48,122,,31.48,269,,31.48,275
31.495,128,,31.495,263,,31.495,276
31.51,128,,31.51,259,,31.51,261
31.525,134,,31.525,247,,31.525,251
31.54,130,,31.54,258,,31.54,257
31.555,133,,31.555,250,,31.555,235
31.57,132,,31.57,220,,31.57,246
31.585,132,,31.585,211,,31.585,220
31.6,137,,31.6,213,,31.6,224
31.615,140,,31.615,202,,31.615,222
31.63,126,,31.63,230,,31.63,216
31.645,131,,31.645,216,,31.645,216
31.66,124,,31.66,219,,31.66,234
31.675,124,,31.675,210,,31.675,238
31.69,119,,31.69,216,,31.69,220
31.705,119,,31.705,186,,31.705,223
31.72,131,,31.72,185,,31.72,209
31.735,139,,31.735,184,,31.735,210
31.75,146,,31.75,190,,31.75,208
31.765,128,,31.765,199,,31.765,216
31.78,120,,31.78,205,,31.78,217
31.795,131,,31.795,207,,31.795,216
31.81,139,,31.81,203,,31.81,205
31.825,123,,31.825,188,,31.825,197
31.84,131,,31.84,200,,31.84,213
31.855,134,,31.855,193,,31.855,231
31.87,141,,31.87,191,,31.87,205
31.885,132,,31.885,184,,31.885,206
31.9,120,,31.9,183,,31.9,223
31.915,134,,31.915,202,,31.915,202
31.93,152,,31.93,219,,31.93,189
31.945,127,,31.945,190,,31.945,220
31.96,143,,31.96,188,,31.96,195
31.975,122,,31.975,180,,31.975,220
31.99,120,,31.99,182,,31.99,198
32.005,130,,32.005,176,,32.005,199
32.02,137,,32.02,177,,32.02,216
32.035,131,,32.035,184,,32.035,199
32.05,118,,32.05,188,,32.05,203
32.065,129,,32.065,203,,32.065,200
32.08,138,,32.08,204,,32.08,202
32.095,119,,32.095,199,,32.095,217
32.11,107,,32.11,188,,32.11,197
32.125,121,,32.125,182,,32.125,198
32.14,117,,32.14,176,,32.14,191
32.155,136,,32.155,173,,32.155,195
32.17,125,,32.17,179,,32.17,181
32.185,124,,32.185,177,,32.185,190
32.2,131,,32.2,191,,32.2,177
32.215,122,,32.215,220,,32.215,194
32.23,138,,32.23,199,,32.23,191
32.245,142,,32.245,197,,32.245,203
32.26,135,,32.26,185,,32.26,214
32.275,137,,32.275,193,,32.275,194
32.29,143,,32.29,186,,32.29,180
32.305,139,,32.305,179,,32.305,182
32.32,122,,32.32,197,,32.32,200
32.335,133,,32.335,197,,32.335,183
32.35,140,,32.35,202,,32.35,198
32.365,138,,32.365,187,,32.365,197
32.38,134,,32.38,196,,32.38,180
32.395,155,,32.395,183,,32.395,188
32.41,135,,32.41,193,,32.41,180
32.425,114,,32.425,211,,32.425,211
32.44,120,,32.44,209,,32.44,196
32.455,125,,32.455,193,,32.455,191
32.47,118,,32.47,236,,32.47,190
32.485,119,,32.485,208,,32.485,200
32.5,123,,32.5,199,,32.5,205
32.515,124,,32.515,189,,32.515,195
32.53,130,,32.53,187,,32.53,195
32.545,116,,32.545,206,,32.545,186
32.56,129,,32.56,211,,32.56,186
32.575,133,,32.575,197,,32.575,186
32.59,129,,32.59,201,,32.59,204
32.605,128,,32.605,201,,32.605,196
32.62,128,,32.62,191,,32.62,216
32.635,129,,32.635,198,,32.635,216
32.65,143,,32.65,203,,32.65,218
32.665,129,,32.665,183,,32.665,213
32.68,129,,32.68,192,,32.68,206
32.695,130,,32.695,171,,32.695,207
32.71,124,,32.71,195,,32.71,227
32.725,120,,32.725,196,,32.725,196
32.74,122,,32.74,203,,32.74,205
32.755,122,,32.755,193,,32.755,210
32.77,120,,32.77,194,,32.77,227
32.785,124,,32.785,198,,32.785,215
32.8,140,,32.8,179,,32.8,221
32.815,119,,32.815,189,,32.815,228
32.83,126,,32.83,200,,32.83,250
32.845,123,,32.845,200,,32.845,239
32.86,121,,32.86,189,,32.86,225
32.875,129,,32.875,189,,32.875,241
32.89,117,,32.89,207,,32.89,225
32.905,112,,32.905,208,,32.905,245
32.92,123,,32.92,183,,32.92,261
32.935,134,,32.935,192,,32.935,262
32.95,140,,32.95,192,,32.95,269
32.965,137,,32.965,184,,32.965,249
32.98,125,,32.98,184,,32.98,254
32.995,122,,32.995,180,,32.995,250
33.01,136,,33.01,183,,33.01,271
33.025,151,,33.025,172,,33.025,270
33.04,134,,33.04,182,,33.04,259
33.055,126,,33.055,180,,33.055,307
33.07,128,,33.07,195,,33.07,296
33.085,124,,33.085,173,,33.085,267
33.1,133,,33.1,172,,33.1,284
33.115,120,,33.115,182,,33.115,286
33.13,131,,33.13,198,,33.13,272
33.145,110,,33.145,177,,33.145,284
33.16,129,,33.16,194,,33.16,291
33.175,117,,33.175,187,,33.175,272
33.19,115,,33.19,191,,33.19,284
33.205,134,,33.205,173,,33.205,293
33.22,143,,33.22,186,,33.22,302
33.235,133,,33.235,216,,33.235,286
33.25,123,,33.25,211,,33.25,284
33.265,119,,33.265,193,,33.265,293
33.28,126,,33.28,198,,33.28,240
33.295,134,,33.295,200,,33.295,222
33.31,143,,33.31,204,,33.31,227
33.325,127,,33.325,195,,33.325,239
33.34,132,,33.34,214,,33.34,229
33.355,115,,33.355,201,,33.355,218
33.37,115,,33.37,191,,33.37,228
33.385,124,,33.385,206,,33.385,238
33.4,120,,33.4,226,,33.4,252
33.415,117,,33.415,217,,33.415,239
33.43,123,,33.43,202,,33.43,241
33.445,129,,33.445,189,,33.445,210
33.46,111,,33.46,229,,33.46,205
33.475,117,,33.475,216,,33.475,213
33.49,113,,33.49,227,,33.49,226
33.505,119,,33.505,231,,33.505,230
33.52,132,,33.52,227,,33.52,219
33.535,126,,33.535,251,,33.535,217
33.55,129,,33.55,238,,33.55,204
33.565,114,,33.565,249,,33.565,210
33.58,112,,33.58,269,,33.58,207
33.595,119,,33.595,265,,33.595,192
33.61,131,,33.61,294,,33.61,212
33.625,137,,33.625,263,,33.625,237
33.64,111,,33.64,291,,33.64,209
33.655,122,,33.655,292,,33.655,201
33.67,134,,33.67,287,,33.67,193
33.685,117,,33.685,293,,33.685,170
33.7,111,,33.7,296,,33.7,190
33.715,125,,33.715,321,,33.715,203
33.73,123,,33.73,333,,33.73,172
33.745,126,,33.745,347,,33.745,168
33.76,118,,33.76,358,,33.76,182
33.775,124,,33.775,359,,33.775,177
33.79,134,,33.79,353,,33.79,172
33.805,148,,33.805,357,,33.805,179
33.82,115,,33.82,345,,33.82,186
33.835,116,,33.835,363,,33.835,180
33.85,128,,33.85,401,,33.85,180
33.865,155,,33.865,421,,33.865,166
33.88,148,,33.88,379,,33.88,174
33.895,117,,33.895,405,,33.895,181
33.91,108,,33.91,418,,33.91,191
33.925,117,,33.925,410,,33.925,191
33.94,115,,33.94,393,,33.94,184
33.955,116,,33.955,398,,33.955,175
33.97,120,,33.97,413,,33.97,163
33.985,117,,33.985,415,,33.985,191
34,121,,34,403,,34,179
34.015,127,,34.015,395,,34.015,167
34.03,118,,34.03,405,,34.03,181
34.045,116,,34.045,384,,34.045,186
34.06,101,,34.06,418,,34.06,172
34.075,108,,34.075,395,,34.075,188
34.09,124,,34.09,387,,34.09,169
34.105,125,,34.105,392,,34.105,166
34.12,119,,34.12,375,,34.12,162
34.135,103,,34.135,373,,34.135,185
34.15,136,,34.15,363,,34.15,164
34.165,116,,34.165,350,,34.165,168
34.18,121,,34.18,357,,34.18,169
34.195,133,,34.195,331,,34.195,189
34.21,120,,34.21,343,,34.21,178
34.225,117,,34.225,342,,34.225,182
34.24,123,,34.24,309,,34.24,183
34.255,122,,34.255,307,,34.255,180
34.27,127,,34.27,296,,34.27,184
34.285,127,,34.285,263,,34.285,188
34.3,133,,34.3,260,,34.3,178
34.315,113,,34.315,284,,34.315,187
34.33,127,,34.33,274,,34.33,195
34.345,126,,34.345,262,,34.345,180
34.36,113,,34.36,246,,34.36,171
34.375,127,,34.375,247,,34.375,171
34.39,138,,34.39,251,,34.39,194
34.405,148,,34.405,240,,34.405,199
34.42,124,,34.42,219,,34.42,172
34.435,107,,34.435,204,,34.435,170
34.45,132,,34.45,218,,34.45,167
34.465,130,,34.465,228,,34.465,188
34.48,135,,34.48,192,,34.48,180
34.495,129,,34.495,181,,34.495,176
34.51,132,,34.51,209,,34.51,166
34.525,122,,34.525,230,,34.525,166
34.54,109,,34.54,184,,34.54,172
34.555,119,,34.555,194,,34.555,173
34.57,135,,34.57,230,,34.57,174
34.585,130,,34.585,209,,34.585,189
34.6,126,,34.6,217,,34.6,188
34.615,123,,34.615,216,,34.615,186
34.63,139,,34.63,196,,34.63,182
34.645,133,,34.645,198,,34.645,182
34.66,118,,34.66,204,,34.66,179
34.675,124,,34.675,178,,34.675,180
34.69,125,,34.69,184,,34.69,166
34.705,128,,34.705,162,,34.705,181
34.72,114,,34.72,183,,34.72,168
34.735,126,,34.735,175,,34.735,171
34.75,121,,34.75,180,,34.75,157
34.765,135,,34.765,204,,34.765,164
34.78,136,,34.78,196,,34.78,186
34.795,140,,34.795,199,,34.795,187
34.81,133,,34.81,203,,34.81,166
34.825,116,,34.825,190,,34.825,156
34.84,142,,34.84,190,,34.84,178
34.855,136,,34.855,194,,34.855,192
34.87,126,,34.87,196,,34.87,185
34.885,126,,34.885,172,,34.885,168
34.9,149,,34.9,168,,34.9,171
34.915,120,,34.915,163,,34.915,163
34.93,119,,34.93,164,,34.93,178
34.945,121,,34.945,162,,34.945,169
34.96,144,,34.96,176,,34.96,172
34.975,130,,34.975,177,,34.975,181
34.99,148,,34.99,174,,34.99,171
35.005,126,,35.005,163,,35.005,189
35.02,118,,35.02,175,,35.02,194
35.035,127,,35.035,198,,35.035,191
35.05,120,,35.05,194,,35.05,186
35.065,123,,35.065,169,,35.065,184
35.08,135,,35.08,180,,35.08,180
35.095,141,,35.095,189,,35.095,158
35.11,130,,35.11,180,,35.11,156
35.125,132,,35.125,178,,35.125,181
35.14,139,,35.14,183,,35.14,183
35.155,123,,35.155,192,,35.155,195
35.17,126,,35.17,188,,35.17,190
35.185,129,,35.185,179,,35.185,179
35.2,118,,35.2,177,,35.2,168
35.215,142,,35.215,175,,35.215,169
35.23,133,,35.23,183,,35.23,193
35.245,121,,35.245,183,,35.245,177
35.26,123,,35.26,173,,35.26,172
35.275,134,,35.275,186,,35.275,181
35.29,136,,35.29,173,,35.29,193
35.305,124,,35.305,185,,35.305,167
35.32,118,,35.32,188,,35.32,163
35.335,123,,35.335,186,,35.335,154
35.35,116,,35.35,195,,35.35,172
35.365,123,,35.365,197,,35.365,195
35.38,133,,35.38,197,,35.38,196
35.395,134,,35.395,193,,35.395,179
35.41,127,,35.41,182,,35.41,182
35.425,129,,35.425,191,,35.425,177
35.44,108,,35.44,186,,35.44,176
35.455,119,,35.455,186,,35.455,194
35.47,141,,35.47,175,,35.47,202
35.485,117,,35.485,161,,35.485,194
35.5,130,,35.5,164,,35.5,174
35.515,129,,35.515,187,,35.515,188
35.53,125,,35.53,199,,35.53,196
35.545,133,,35.545,177,,35.545,183
35.56,148,,35.56,174,,35.56,161
35.575,158,,35.575,178,,35.575,177
35.59,133,,35.59,186,,35.59,171
35.605,132,,35.605,187,,35.605,171
35.62,129,,35.62,197,,35.62,204
35.635,125,,35.635,174,,35.635,194
35.65,131,,35.65,186,,35.65,187
35.665,124,,35.665,186,,35.665,192
35.68,134,,35.68,173,,35.68,185
35.695,137,,35.695,185,,35.695,174
35.71,149,,35.71,174,,35.71,184
35.725,136,,35.725,165,,35.725,192
35.74,152,,35.74,190,,35.74,178
35.755,146,,35.755,175,,35.755,175
35.77,127,,35.77,197,,35.77,195
35.785,146,,35.785,184,,35.785,186
35.8,161,,35.8,178,,35.8,210
35.815,136,,35.815,175,,35.815,198
35.83,136,,35.83,191,,35.83,186
35.845,129,,35.845,182,,35.845,206
35.86,124,,35.86,177,,35.86,198
35.875,142,,35.875,172,,35.875,191
35.89,142,,35.89,190,,35.89,165
35.905,156,,35.905,187,,35.905,193
35.92,131,,35.92,190,,35.92,191
35.935,141,,35.935,203,,35.935,181
35.95,141,,35.95,184,,35.95,182
35.965,158,,35.965,174,,35.965,196
35.98,157,,35.98,171,,35.98,213
35.995,150,,35.995,195,,35.995,190
36.01,139,,36.01,201,,36.01,180
36.025,143,,36.025,204,,36.025,178
36.04,167,,36.04,216,,36.04,169
36.055,162,,36.055,200,,36.055,186
36.07,152,,36.07,205,,36.07,187
36.085,151,,36.085,178,,36.085,181
36.1,159,,36.1,175,,36.1,184
36.115,158,,36.115,201,,36.115,195
36.13,170,,36.13,207,,36.13,214
36.145,159,,36.145,212,,36.145,214
36.16,147,,36.16,206,,36.16,198
36.175,149,,36.175,193,,36.175,203
36.19,152,,36.19,210,,36.19,178
36.205,169,,36.205,220,,36.205,177
36.22,176,,36.22,223,,36.22,180
36.235,172,,36.235,220,,36.235,184
36.25,177,,36.25,218,,36.25,173
36.265,183,,36.265,227,,36.265,188
36.28,172,,36.28,245,,36.28,194
36.295,183,,36.295,237,,36.295,197
36.31,191,,36.31,219,,36.31,190
36.325,203,,36.325,228,,36.325,189
36.34,192,,36.34,238,,36.34,188
36.355,192,,36.355,242,,36.355,182
36.37,214,,36.37,231,,36.37,202
36.385,199,,36.385,242,,36.385,201
36.4,206,,36.4,274,,36.4,194
36.415,217,,36.415,250,,36.415,197
36.43,230,,36.43,244,,36.43,213
36.445,250,,36.445,238,,36.445,227
36.46,234,,36.46,244,,36.46,219
36.475,225,,36.475,267,,36.475,215
36.49,227,,36.49,278,,36.49,219
36.505,236,,36.505,252,,36.505,220
36.52,282,,36.52,256,,36.52,235
36.535,286,,36.535,296,,36.535,244
36.55,315,,36.55,294,,36.55,243
36.565,308,,36.565,289,,36.565,271
36.58,329,,36.58,277,,36.58,267
36.595,335,,36.595,275,,36.595,256
36.61,350,,36.61,264,,36.61,297
36.625,368,,36.625,263,,36.625,288
36.64,382,,36.64,276,,36.64,266
36.655,398,,36.655,256,,36.655,259
36.67,446,,36.67,249,,36.67,292
36.685,474,,36.685,269,,36.685,289
36.7,462,,36.7,261,,36.7,283
36.715,553,,36.715,228,,36.715,298
36.73,582,,36.73,234,,36.73,339
36.745,599,,36.745,246,,36.745,315
36.76,681,,36.76,264,,36.76,319
36.775,718,,36.775,287,,36.775,315
36.79,744,,36.79,249,,36.79,298
36.805,795,,36.805,223,,36.805,297
36.82,881,,36.82,217,,36.82,306
36.835,924,,36.835,240,,36.835,315
36.85,960,,36.85,255,,36.85,299
36.865,1025,,36.865,241,,36.865,278
36.88,1049,,36.88,252,,36.88,289
36.895,1141,,36.895,250,,36.895,292
36.91,1239,,36.91,237,,36.91,279
36.925,1247,,36.925,245,,36.925,302
36.94,1313,,36.94,250,,36.94,273
36.955,1351,,36.955,255,,36.955,279
36.97,1383,,36.97,264,,36.97,274
36.985,1405,,36.985,272,,36.985,261
37,1382,,37,262,,37,267
37.015,1444,,37.015,271,,37.015,275
37.03,1492,,37.03,294,,37.03,240
37.045,1431,,37.045,280,,37.045,244
37.06,1494,,37.06,241,,37.06,223
37.075,1436,,37.075,247,,37.075,268
37.09,1456,,37.09,289,,37.09,240
37.105,1482,,37.105,314,,37.105,246
37.12,1402,,37.12,303,,37.12,254
37.135,1380,,37.135,308,,37.135,247
37.15,1341,,37.15,297,,37.15,226
37.165,1323,,37.165,288,,37.165,244
37.18,1305,,37.18,316,,37.18,237
37.195,1221,,37.195,340,,37.195,245
37.21,1195,,37.21,353,,37.21,242
37.225,1122,,37.225,349,,37.225,272
37.24,1039,,37.24,350,,37.24,251
37.255,1005,,37.255,362,,37.255,244
37.27,928,,37.27,411,,37.27,259
37.285,850,,37.285,451,,37.285,303
37.3,844,,37.3,469,,37.3,302
37.315,808,,37.315,466,,37.315,302
37.33,798,,37.33,493,,37.33,270
37.345,702,,37.345,517,,37.345,290
37.36,665,,37.36,542,,37.36,301
37.375,622,,37.375,564,,37.375,325
37.39,578,,37.39,597,,37.39,343
37.405,551,,37.405,588,,37.405,340
37.42,495,,37.42,624,,37.42,358
37.435,456,,37.435,684,,37.435,354
37.45,465,,37.45,646,,37.45,373
37.465,428,,37.465,755,,37.465,397
37.48,423,,37.48,825,,37.48,388
37.495,423,,37.495,859,,37.495,406
37.51,382,,37.51,868,,37.51,413
37.525,341,,37.525,915,,37.525,445
37.54,316,,37.54,951,,37.54,438
37.555,320,,37.555,1055,,37.555,473
37.57,307,,37.57,1082,,37.57,465
37.585,281,,37.585,1160,,37.585,496
37.6,240,,37.6,1193,,37.6,490
37.615,257,,37.615,1202,,37.615,525
37.63,250,,37.63,1246,,37.63,540
37.645,228,,37.645,1311,,37.645,531
37.66,234,,37.66,1390,,37.66,551
37.675,205,,37.675,1358,,37.675,545
37.69,222,,37.69,1442,,37.69,587
37.705,223,,37.705,1508,,37.705,611
37.72,202,,37.72,1525,,37.72,605
37.735,199,,37.735,1571,,37.735,625
37.75,210,,37.75,1579,,37.75,631
37.765,200,,37.765,1617,,37.765,624
37.78,161,,37.78,1597,,37.78,647
37.795,153,,37.795,1586,,37.795,653
37.81,181,,37.81,1577,,37.81,693
37.825,175,,37.825,1575,,37.825,668
37.84,192,,37.84,1532,,37.84,703
37.855,207,,37.855,1512,,37.855,730
37.87,165,,37.87,1557,,37.87,739
37.885,164,,37.885,1566,,37.885,724
37.9,150,,37.9,1515,,37.9,725
37.915,166,,37.915,1472,,37.915,748
37.93,153,,37.93,1511,,37.93,745
37.945,151,,37.945,1409,,37.945,787
37.96,163,,37.96,1407,,37.96,743
37.975,148,,37.975,1284,,37.975,722
37.99,139,,37.99,1245,,37.99,759
38.005,138,,38.005,1230,,38.005,762
38.02,143,,38.02,1111,,38.02,693
38.035,132,,38.035,1091,,38.035,676
38.05,130,,38.05,999,,38.05,686
38.065,122,,38.065,970,,38.065,661
38.08,143,,38.08,937,,38.08,677
38.095,142,,38.095,877,,38.095,644
38.11,134,,38.11,837,,38.11,631
38.125,131,,38.125,766,,38.125,648
38.14,127,,38.14,715,,38.14,559
38.155,132,,38.155,684,,38.155,548
38.17,145,,38.17,661,,38.17,536
38.185,150,,38.185,657,,38.185,539
38.2,136,,38.2,612,,38.2,504
38.215,133,,38.215,559,,38.215,444
38.23,113,,38.23,534,,38.23,444
38.245,120,,38.245,489,,38.245,464
38.26,124,,38.26,447,,38.26,448
38.275,122,,38.275,450,,38.275,391
38.29,146,,38.29,459,,38.29,372
38.305,122,,38.305,431,,38.305,358
38.32,127,,38.32,387,,38.32,370
38.335,120,,38.335,386,,38.335,406
38.35,119,,38.35,384,,38.35,347
38.365,123,,38.365,367,,38.365,317
38.38,120,,38.38,330,,38.38,306
38.395,121,,38.395,305,,38.395,274
38.41,118,,38.41,324,,38.41,252
38.425,107,,38.425,311,,38.425,259
38.44,108,,38.44,294,,38.44,255
38.455,118,,38.455,291,,38.455,247
38.47,109,,38.47,286,,38.47,275
38.485,124,,38.485,285,,38.485,257
38.5,131,,38.5,285,,38.5,244
38.515,115,,38.515,253,,38.515,245
38.53,122,,38.53,255,,38.53,236
38.545,123,,38.545,279,,38.545,247
38.56,109,,38.56,260,,38.56,226
38.575,102,,38.575,251,,38.575,241
38.59,105,,38.59,271,,38.59,239
38.605,110,,38.605,263,,38.605,219
38.62,115,,38.62,233,,38.62,218
38.635,120,,38.635,249,,38.635,224
38.65,119,,38.65,240,,38.65,233
38.665,115,,38.665,224,,38.665,238
38.68,110,,38.68,251,,38.68,250
38.695,105,,38.695,253,,38.695,243
38.71,104,,38.71,232,,38.71,219
38.725,117,,38.725,247,,38.725,230
38.74,105,,38.74,252,,38.74,240
38.755,104,,38.755,252,,38.755,243
38.77,123,,38.77,270,,38.77,242
38.785,107,,38.785,243,,38.785,247
38.8,93,,38.8,239,,38.8,252
38.815,105,,38.815,244,,38.815,248
38.83,106,,38.83,233,,38.83,260
38.845,114,,38.845,241,,38.845,240
38.86,110,,38.86,248,,38.86,240
38.875,109,,38.875,254,,38.875,251
38.89,119,,38.89,224,,38.89,233
38.905,109,,38.905,223,,38.905,261
38.92,111,,38.92,234,,38.92,242
38.935,121,,38.935,237,,38.935,221
38.95,105,,38.95,238,,38.95,251
38.965,99,,38.965,241,,38.965,252
38.98,98,,38.98,250,,38.98,235
38.995,102,,38.995,258,,38.995,210
39.01,111,,39.01,243,,39.01,217
39.025,102,,39.025,236,,39.025,232
39.04,102,,39.04,232,,39.04,224
39.055,113,,39.055,250,,39.055,231
39.07,125,,39.07,243,,39.07,227
39.085,112,,39.085,240,,39.085,210
39.1,119,,39.1,229,,39.1,197
39.115,109,,39.115,216,,39.115,209
39.13,85,,39.13,212,,39.13,197
39.145,105,,39.145,199,,39.145,202
39.16,102,,39.16,227,,39.16,184
39.175,87,,39.175,253,,39.175,191
39.19,92,,39.19,222,,39.19,200
39.205,101,,39.205,223,,39.205,193
39.22,88,,39.22,198,,39.22,196
39.235,100,,39.235,207,,39.235,177
39.25,111,,39.25,210,,39.25,157
39.265,101,,39.265,223,,39.265,182
39.28,115,,39.28,235,,39.28,185
39.295,106,,39.295,220,,39.295,180
39.31,115,,39.31,214,,39.31,178
39.325,106,,39.325,207,,39.325,166
39.34,104,,39.34,202,,39.34,160
39.355,101,,39.355,198,,39.355,170
39.37,107,,39.37,194,,39.37,171
39.385,94,,39.385,203,,39.385,182
39.4,89,,39.4,167,,39.4,173
39.415,108,,39.415,165,,39.415,144
39.43,109,,39.43,188,,39.43,155
39.445,99,,39.445,196,,39.445,170
39.46,106,,39.46,174,,39.46,163
39.475,96,,39.475,191,,39.475,170
39.49,96,,39.49,194,,39.49,180
39.505,99,,39.505,178,,39.505,159
39.52,107,,39.52,155,,39.52,147
39.535,103,,39.535,163,,39.535,159
39.55,91,,39.55,166,,39.55,177
39.565,85,,39.565,168,,39.565,149
39.58,85,,39.58,170,,39.58,149
39.595,98,,39.595,163,,39.595,157
39.61,110,,39.61,160,,39.61,155
39.625,107,,39.625,170,,39.625,150
39.64,103,,39.64,158,,39.64,163
39.655,101,,39.655,156,,39.655,161
39.67,88,,39.67,155,,39.67,160
39.685,92,,39.685,156,,39.685,170
39.7,87,,39.7,163,,39.7,152
39.715,89,,39.715,171,,39.715,147
39.73,84,,39.73,164,,39.73,156
39.745,108,,39.745,154,,39.745,152
39.76,119,,39.76,162,,39.76,145
39.775,101,,39.775,165,,39.775,144
39.79,102,,39.79,166,,39.79,146
39.805,95,,39.805,160,,39.805,153
39.82,93,,39.82,158,,39.82,154
39.835,107,,39.835,170,,39.835,156
39.85,106,,39.85,173,,39.85,148
39.865,92,,39.865,150,,39.865,163
39.88,92,,39.88,148,,39.88,148
39.895,104,,39.895,156,,39.895,152
39.91,97,,39.91,173,,39.91,135
39.925,94,,39.925,173,,39.925,128
39.94,106,,39.94,161,,39.94,133
39.955,92,,39.955,169,,39.955,145
39.97,95,,39.97,169,,39.97,155
39.985,92,,39.985,169,,39.985,169
40,90,,40,166,,40,154
40.015,94,,40.015,166,,40.015,144
40.03,107,,40.03,160,,40.03,136
40.045,101,,40.045,154,,40.045,151
40.06,99,,40.06,170,,40.06,151
40.075,84,,40.075,167,,40.075,151
40.09,95,,40.09,155,,40.09,150
40.105,82,,40.105,158,,40.105,138
40.12,84,,40.12,160,,40.12,152
40.135,94,,40.135,150,,40.135,152
40.15,107,,40.15,167,,40.15,142
40.165,106,,40.165,138,,40.165,138
40.18,98,,40.18,163,,40.18,144
40.195,97,,40.195,163,,40.195,140
40.21,98,,40.21,162,,40.21,140
40.225,98,,40.225,169,,40.225,136
40.24,88,,40.24,181,,40.24,145
40.255,88,,40.255,176,,40.255,149
40.27,95,,40.27,166,,40.27,139
40.285,86,,40.285,160,,40.285,129
40.3,88,,40.3,170,,40.3,137
40.315,95,,40.315,171,,40.315,152
40.33,82,,40.33,161,,40.33,147
40.345,86,,40.345,169,,40.345,154
40.36,101,,40.36,196,,40.36,139
40.375,95,,40.375,175,,40.375,137
40.39,94,,40.39,174,,40.39,143
40.405,85,,40.405,169,,40.405,134
40.42,93,,40.42,173,,40.42,144
40.435,96,,40.435,154,,40.435,149
40.45,85,,40.45,153,,40.45,153
40.465,95,,40.465,167,,40.465,157
40.48,84,,40.48,164,,40.48,133
40.495,97,,40.495,164,,40.495,149
40.51,96,,40.51,165,,40.51,144
40.525,90,,40.525,176,,40.525,139
40.54,90,,40.54,156,,40.54,143
40.555,101,,40.555,156,,40.555,154
40.57,99,,40.57,184,,40.57,145
40.585,100,,40.585,163,,40.585,139
40.6,86,,40.6,168,,40.6,142
40.615,97,,40.615,168,,40.615,157
40.63,103,,40.63,162,,40.63,166
40.645,102,,40.645,185,,40.645,148
40.66,109,,40.66,168,,40.66,159
40.675,93,,40.675,172,,40.675,167
40.69,96,,40.69,164,,40.69,151
40.705,103,,40.705,166,,40.705,172
40.72,104,,40.72,181,,40.72,146
40.735,94,,40.735,169,,40.735,138
40.75,101,,40.75,194,,40.75,123
40.765,101,,40.765,164,,40.765,146
40.78,91,,40.78,163,,40.78,145
40.795,78,,40.795,168,,40.795,142
40.81,95,,40.81,158,,40.81,146
40.825,102,,40.825,166,,40.825,144
40.84,91,,40.84,177,,40.84,155
40.855,88,,40.855,173,,40.855,129
40.87,109,,40.87,191,,40.87,138
40.885,95,,40.885,187,,40.885,139
40.9,86,,40.9,190,,40.9,137
40.915,102,,40.915,170,,40.915,127
40.93,99,,40.93,197,,40.93,133
40.945,93,,40.945,214,,40.945,148
40.96,87,,40.96,224,,40.96,155
40.975,106,,40.975,242,,40.975,136
40.99,93,,40.99,232,,40.99,135
41.005,97,,41.005,225,,41.005,158
41.02,105,,41.02,223,,41.02,145
41.035,101,,41.035,241,,41.035,142
41.05,93,,41.05,238,,41.05,145
41.065,89,,41.065,223,,41.065,159
41.08,97,,41.08,242,,41.08,146
41.095,104,,41.095,252,,41.095,147
41.11,104,,41.11,259,,41.11,121
41.125,84,,41.125,252,,41.125,124
41.14,94,,41.14,249,,41.14,130
41.155,82,,41.155,252,,41.155,124
41.17,97,,41.17,272,,41.17,140
41.185,94,,41.185,283,,41.185,141
41.2,89,,41.2,282,,41.2,145
41.215,98,,41.215,257,,41.215,136
41.23,95,,41.23,271,,41.23,143
41.245,89,,41.245,262,,41.245,142
41.26,84,,41.26,292,,41.26,137
41.275,96,,41.275,285,,41.275,141
41.29,97,,41.29,271,,41.29,127
41.305,104,,41.305,283,,41.305,135
41.32,92,,41.32,301,,41.32,142
41.335,107,,41.335,292,,41.335,133
41.35,109,,41.35,296,,41.35,157
41.365,96,,41.365,272,,41.365,150
41.38,113,,41.38,295,,41.38,141
41.395,101,,41.395,291,,41.395,153
41.41,100,,41.41,267,,41.41,130
41.425,109,,41.425,293,,41.425,149
41.44,91,,41.44,267,,41.44,144
41.455,88,,41.455,280,,41.455,120
41.47,89,,41.47,242,,41.47,131
41.485,99,,41.485,239,,41.485,146
41.5,103,,41.5,232,,41.5,136
41.515,103,,41.515,244,,41.515,140
41.53,95,,41.53,262,,41.53,137
41.545,99,,41.545,262,,41.545,133
41.56,105,,41.56,253,,41.56,131
41.575,100,,41.575,238,,41.575,126
41.59,93,,41.59,240,,41.59,133
41.605,98,,41.605,233,,41.605,130
41.62,97,,41.62,248,,41.62,125
41.635,94,,41.635,233,,41.635,141
41.65,100,,41.65,227,,41.65,144
41.665,99,,41.665,225,,41.665,131
41.68,110,,41.68,210,,41.68,130
41.695,104,,41.695,199,,41.695,127
41.71,80,,41.71,212,,41.71,139
41.725,86,,41.725,199,,41.725,125
41.74,95,,41.74,183,,41.74,117
41.755,94,,41.755,193,,41.755,136
41.77,101,,41.77,200,,41.77,135
41.785,100,,41.785,190,,41.785,149
41.8,108,,41.8,185,,41.8,151
41.815,106,,41.815,166,,41.815,150
41.83,104,,41.83,182,,41.83,143
41.845,104,,41.845,205,,41.845,147
41.86,102,,41.86,199,,41.86,120
41.875,103,,41.875,184,,41.875,139
41.89,94,,41.89,167,,41.89,138
41.905,93,,41.905,163,,41.905,142
41.92,100,,41.92,172,,41.92,135
41.935,106,,41.935,169,,41.935,147
41.95,93,,41.95,179,,41.95,129
41.965,92,,41.965,169,,41.965,143
41.98,92,,41.98,183,,41.98,132
41.995,104,,41.995,177,,41.995,145
42.01,103,,42.01,174,,42.01,126
42.025,102,,42.025,194,,42.025,141
42.04,91,,42.04,184,,42.04,125
42.055,99,,42.055,178,,42.055,134
42.07,99,,42.07,190,,42.07,135
42.085,97,,42.085,171,,42.085,123
42.1,96,,42.1,162,,42.1,139
42.115,105,,42.115,169,,42.115,135
42.13,110,,42.13,174,,42.13,129
42.145,93,,42.145,174,,42.145,150
42.16,105,,42.16,159,,42.16,155
42.175,109,,42.175,155,,42.175,150
42.19,92,,42.19,173,,42.19,141
42.205,85,,42.205,179,,42.205,151
42.22,105,,42.22,184,,42.22,141
42.235,110,,42.235,184,,42.235,128
42.25,96,,42.25,175,,42.25,131
42.265,94,,42.265,174,,42.265,157
42.28,96,,42.28,161,,42.28,150
42.295,105,,42.295,166,,42.295,147
42.31,101,,42.31,162,,42.31,140
42.325,90,,42.325,168,,42.325,138
42.34,80,,42.34,180,,42.34,155
42.355,99,,42.355,172,,42.355,160
42.37,105,,42.37,182,,42.37,156
42.385,98,,42.385,178,,42.385,153
42.4,93,,42.4,187,,42.4,159
42.415,102,,42.415,184,,42.415,146
42.43,107,,42.43,186,,42.43,152
42.445,92,,42.445,190,,42.445,179
42.46,115,,42.46,208,,42.46,198
42.475,116,,42.475,195,,42.475,164
42.49,108,,42.49,178,,42.49,154
42.505,110,,42.505,170,,42.505,163
42.52,109,,42.52,185,,42.52,170
42.535,108,,42.535,178,,42.535,180
42.55,108,,42.55,185,,42.55,182
42.565,120,,42.565,192,,42.565,180
42.58,124,,42.58,183,,42.58,189
42.595,120,,42.595,156,,42.595,187
42.61,108,,42.61,188,,42.61,199
42.625,111,,42.625,203,,42.625,193
42.64,116,,42.64,192,,42.64,185
42.655,120,,42.655,192,,42.655,201
42.67,122,,42.67,180,,42.67,201
42.685,119,,42.685,180,,42.685,216
42.7,129,,42.7,161,,42.7,224
42.715,124,,42.715,161,,42.715,225
42.73,112,,42.73,165,,42.73,214
42.745,132,,42.745,175,,42.745,224
42.76,149,,42.76,162,,42.76,263
42.775,133,,42.775,165,,42.775,265
42.79,121,,42.79,177,,42.79,268
42.805,132,,42.805,176,,42.805,268
42.82,119,,42.82,171,,42.82,268
42.835,136,,42.835,183,,42.835,283
42.85,133,,42.85,185,,42.85,295
42.865,137,,42.865,179,,42.865,280
42.88,121,,42.88,183,,42.88,273
42.895,125,,42.895,185,,42.895,306
42.91,138,,42.91,164,,42.91,328
42.925,132,,42.925,166,,42.925,324
42.94,140,,42.94,157,,42.94,287
42.955,155,,42.955,165,,42.955,324
42.97,161,,42.97,180,,42.97,311
42.985,156,,42.985,178,,42.985,322
43,145,,43,176,,43,326
43.015,158,,43.015,177,,43.015,298
43.03,173,,43.03,193,,43.03,305
43.045,163,,43.045,200,,43.045,295
43.06,159,,43.06,201,,43.06,274
43.075,164,,43.075,209,,43.075,268
43.09,172,,43.09,198,,43.09,285
43.105,186,,43.105,204,,43.105,253
43.12,164,,43.12,205,,43.12,253
43.135,193,,43.135,197,,43.135,246
43.15,207,,43.15,201,,43.15,247
43.165,229,,43.165,199,,43.165,234
43.18,215,,43.18,205,,43.18,261
43.195,245,,43.195,197,,43.195,261
43.21,234,,43.21,200,,43.21,261
43.225,233,,43.225,205,,43.225,200
43.24,249,,43.24,217,,43.24,229
43.255,255,,43.255,224,,43.255,223
43.27,287,,43.27,213,,43.27,197
43.285,278,,43.285,239,,43.285,208
43.3,297,,43.3,248,,43.3,203
43.315,313,,43.315,234,,43.315,185
43.33,370,,43.33,232,,43.33,182
43.345,390,,43.345,261,,43.345,190
43.36,404,,43.36,243,,43.36,199
43.375,423,,43.375,266,,43.375,198
43.39,451,,43.39,264,,43.39,214
43.405,497,,43.405,260,,43.405,200
43.42,505,,43.42,269,,43.42,191
43.435,546,,43.435,288,,43.435,199
43.45,576,,43.45,280,,43.45,182
43.465,627,,43.465,272,,43.465,196
43.48,630,,43.48,264,,43.48,187
43.495,688,,43.495,298,,43.495,205
43.51,688,,43.51,285,,43.51,214
43.525,765,,43.525,302,,43.525,216
43.54,865,,43.54,284,,43.54,229
43.555,852,,43.555,290,,43.555,207
43.57,894,,43.57,314,,43.57,209
43.585,896,,43.585,299,,43.585,212
43.6,984,,43.6,294,,43.6,219
43.615,1006,,43.615,294,,43.615,201
43.63,1010,,43.63,284,,43.63,216
43.645,1107,,43.645,303,,43.645,227
43.66,1098,,43.66,292,,43.66,230
43.675,1095,,43.675,288,,43.675,206
43.69,1125,,43.69,277,,43.69,207
43.705,1079,,43.705,275,,43.705,217
43.72,1148,,43.72,270,,43.72,216
43.735,1132,,43.735,301,,43.735,223
43.75,1119,,43.75,279,,43.75,195
43.765,1103,,43.765,291,,43.765,211
43.78,1101,,43.78,288,,43.78,228
43.795,1125,,43.795,295,,43.795,222
43.81,1044,,43.81,305,,43.81,214
43.825,1033,,43.825,279,,43.825,220
43.84,1015,,43.84,280,,43.84,208
43.855,942,,43.855,261,,43.855,223
43.87,890,,43.87,255,,43.87,202
43.885,866,,43.885,277,,43.885,194
43.9,864,,43.9,273,,43.9,186
43.915,784,,43.915,271,,43.915,203
43.93,757,,43.93,296,,43.93,196
43.945,777,,43.945,275,,43.945,194
43.96,710,,43.96,292,,43.96,197
43.975,658,,43.975,309,,43.975,180
43.99,615,,43.99,289,,43.99,185
44.005,547,,44.005,278,,44.005,185
44.02,542,,44.02,313,,44.02,168
44.035,523,,44.035,306,,44.035,182
44.05,494,,44.05,334,,44.05,171
44.065,448,,44.065,341,,44.065,173
44.08,408,,44.08,330,,44.08,171
44.095,384,,44.095,335,,44.095,164
44.11,368,,44.11,363,,44.11,147
44.125,335,,44.125,336,,44.125,155
44.14,345,,44.14,361,,44.14,157
44.155,305,,44.155,411,,44.155,166
44.17,311,,44.17,423,,44.17,162
44.185,289,,44.185,415,,44.185,143
44.2,277,,44.2,459,,44.2,145
44.215,265,,44.215,471,,44.215,154
44.23,262,,44.23,509,,44.23,152
44.245,245,,44.245,524,,44.245,159
44.26,216,,44.26,524,,44.26,148
44.275,198,,44.275,526,,44.275,149
44.29,207,,44.29,541,,44.29,139
44.305,193,,44.305,559,,44.305,149
44.32,190,,44.32,583,,44.32,146
44.335,192,,44.335,654,,44.335,132
44.35,198,,44.35,704,,44.35,126
44.365,170,,44.365,698,,44.365,160
44.38,177,,44.38,721,,44.38,151
44.395,174,,44.395,780,,44.395,129
44.41,156,,44.41,768,,44.41,125
44.425,154,,44.425,804,,44.425,162
44.44,152,,44.44,855,,44.44,162
44.455,143,,44.455,878,,44.455,167
44.47,139,,44.47,867,,44.47,162
44.485,144,,44.485,892,,44.485,150
44.5,127,,44.5,933,,44.5,132
44.515,137,,44.515,988,,44.515,146
44.53,138,,44.53,952,,44.53,131
44.545,146,,44.545,955,,44.545,145
44.56,150,,44.56,1028,,44.56,155
44.575,148,,44.575,1054,,44.575,143
44.59,140,,44.59,1053,,44.59,162
44.605,132,,44.605,1038,,44.605,171
44.62,125,,44.62,1070,,44.62,179
44.635,119,,44.635,1103,,44.635,170
44.65,120,,44.65,1060,,44.65,158
44.665,119,,44.665,1063,,44.665,146
44.68,121,,44.68,1032,,44.68,150
44.695,109,,44.695,995,,44.695,163
44.71,105,,44.71,969,,44.71,175
44.725,115,,44.725,962,,44.725,168
44.74,117,,44.74,958,,44.74,167
44.755,125,,44.755,921,,44.755,159
44.77,107,,44.77,923,,44.77,175
44.785,106,,44.785,865,,44.785,171
44.8,111,,44.8,843,,44.8,188
44.815,114,,44.815,835,,44.815,195
44.83,117,,44.83,763,,44.83,182
44.845,122,,44.845,751,,44.845,168
44.86,129,,44.86,738,,44.86,187
44.875,110,,44.875,681,,44.875,178
44.89,111,,44.89,696,,44.89,174
44.905,116,,44.905,667,,44.905,169
44.92,106,,44.92,637,,44.92,179
44.935,110,,44.935,585,,44.935,197
44.95,106,,44.95,548,,44.95,172
44.965,102,,44.965,535,,44.965,161
44.98,116,,44.98,511,,44.98,158
44.995,109,,44.995,492,,44.995,137
45.01,95,,45.01,467,,45.01,147
45.025,102,,45.025,468,,45.025,163
45.04,102,,45.04,464,,45.04,164
45.055,118,,45.055,422,,45.055,141
45.07,125,,45.07,396,,45.07,161
45.085,105,,45.085,406,,45.085,184
45.1,115,,45.1,353,,45.1,166
45.115,130,,45.115,345,,45.115,158
45.13,120,,45.13,363,,45.13,149
45.145,124,,45.145,362,,45.145,148
45.16,125,,45.16,335,,45.16,155
45.175,123,,45.175,307,,45.175,147
45.19,127,,45.19,337,,45.19,135
45.205,133,,45.205,355,,45.205,145
45.22,117,,45.22,311,,45.22,138
45.235,115,,45.235,297,,45.235,154
45.25,129,,45.25,307,,45.25,162
45.265,128,,45.265,302,,45.265,144
45.28,120,,45.28,285,,45.28,150
45.295,127,,45.295,305,,45.295,143
45.31,133,,45.31,305,,45.31,146
45.325,135,,45.325,281,,45.325,145
45.34,129,,45.34,284,,45.34,148
45.355,122,,45.355,299,,45.355,167
45.37,149,,45.37,285,,45.37,152
45.385,160,,45.385,290,,45.385,164
45.4,154,,45.4,311,,45.4,164
45.415,144,,45.415,311,,45.415,166
45.43,143,,45.43,307,,45.43,168
45.445,159,,45.445,320,,45.445,148
45.46,172,,45.46,274,,45.46,148
45.475,182,,45.475,304,,45.475,148
45.49,198,,45.49,341,,45.49,174
45.505,190,,45.505,309,,45.505,178
45.52,184,,45.52,332,,45.52,174
45.535,206,,45.535,330,,45.535,152
45.55,206,,45.55,342,,45.55,153
45.565,203,,45.565,325,,45.565,146
45.58,219,,45.58,327,,45.58,180
45.595,229,,45.595,345,,45.595,170
45.61,247,,45.61,327,,45.61,144
45.625,265,,45.625,339,,45.625,153
45.64,256,,45.64,328,,45.64,146
45.655,244,,45.655,315,,45.655,151
45.67,273,,45.67,343,,45.67,153
45.685,267,,45.685,328,,45.685,158
45.7,256,,45.7,341,,45.7,160
45.715,261,,45.715,307,,45.715,164
45.73,289,,45.73,297,,45.73,162
45.745,308,,45.745,330,,45.745,168
45.76,301,,45.76,335,,45.76,153
45.775,278,,45.775,298,,45.775,155
45.79,265,,45.79,302,,45.79,141
45.805,262,,45.805,294,,45.805,158
45.82,253,,45.82,282,,45.82,155
45.835,255,,45.835,284,,45.835,143
45.85,256,,45.85,300,,45.85,142
45.865,247,,45.865,302,,45.865,132
45.88,227,,45.88,300,,45.88,135
45.895,249,,45.895,287,,45.895,129
45.91,254,,45.91,272,,45.91,149
45.925,235,,45.925,261,,45.925,154
45.94,222,,45.94,265,,45.94,136
45.955,208,,45.955,241,,45.955,138
45.97,214,,45.97,256,,45.97,138
45.985,220,,45.985,247,,45.985,132
46,202,,46,247,,46,130
46.015,164,,46.015,240,,46.015,112
46.03,177,,46.03,226,,46.03,131
46.045,190,,46.045,206,,46.045,137
46.06,191,,46.06,212,,46.06,134
46.075,182,,46.075,227,,46.075,127
46.09,176,,46.09,209,,46.09,154
46.105,189,,46.105,224,,46.105,134
46.12,163,,46.12,218,,46.12,112
46.135,154,,46.135,220,,46.135,126
46.15,154,,46.15,208,,46.15,132
46.165,134,,46.165,194,,46.165,123
46.18,120,,46.18,201,,46.18,110
46.195,139,,46.195,196,,46.195,104
46.21,140,,46.21,200,,46.21,118
46.225,134,,46.225,194,,46.225,111
46.24,115,,46.24,187,,46.24,130
46.255,107,,46.255,216,,46.255,135
46.27,122,,46.27,221,,46.27,119
46.285,123,,46.285,186,,46.285,119
46.3,127,,46.3,221,,46.3,120
46.315,119,,46.315,215,,46.315,120
46.33,115,,46.33,214,,46.33,122
46.345,110,,46.345,192,,46.345,119
46.36,114,,46.36,195,,46.36,120
46.375,107,,46.375,205,,46.375,126
46.39,99,,46.39,232,,46.39,114
46.405,88,,46.405,239,,46.405,119
46.42,83,,46.42,237,,46.42,113
46.435,93,,46.435,231,,46.435,109
46.45,99,,46.45,249,,46.45,116
46.465,105,,46.465,252,,46.465,122
46.48,103,,46.48,235,,46.48,121
46.495,91,,46.495,244,,46.495,115
46.51,92,,46.51,279,,46.51,113
46.525,86,,46.525,276,,46.525,121
46.54,91,,46.54,250,,46.54,123
46.555,87,,46.555,259,,46.555,120
46.57,100,,46.57,285,,46.57,124
46.585,106,,46.585,286,,46.585,125
46.6,97,,46.6,257,,46.6,125
46.615,87,,46.615,291,,46.615,122
46.63,91,,46.63,270,,46.63,131
46.645,80,,46.645,275,,46.645,113
46.66,92,,46.66,282,,46.66,136
46.675,87,,46.675,320,,46.675,117
46.69,95,,46.69,301,,46.69,128
46.705,85,,46.705,301,,46.705,131
46.72,80,,46.72,299,,46.72,121
46.735,87,,46.735,306,,46.735,120
46.75,83,,46.75,275,,46.75,123
46.765,67,,46.765,286,,46.765,116
46.78,80,,46.78,306,,46.78,115
46.795,83,,46.795,289,,46.795,125
46.81,77,,46.81,280,,46.81,123
46.825,78,,46.825,271,,46.825,129
46.84,81,,46.84,259,,46.84,109
46.855,108,,46.855,261,,46.855,117
46.87,106,,46.87,277,,46.87,118
46.885,83,,46.885,267,,46.885,112
46.9,82,,46.9,254,,46.9,114
46.915,97,,46.915,252,,46.915,111
46.93,84,,46.93,239,,46.93,109
46.945,90,,46.945,243,,46.945,117
46.96,75,,46.96,217,,46.96,125
46.975,74,,46.975,219,,46.975,127
46.99,86,,46.99,221,,46.99,112
47.005,86,,47.005,220,,47.005,101
47.02,74,,47.02,211,,47.02,120
47.035,79,,47.035,196,,47.035,115
47.05,76,,47.05,194,,47.05,135
47.065,80,,47.065,209,,47.065,137
47.08,90,,47.08,203,,47.08,124
47.095,95,,47.095,200,,47.095,114
47.11,87,,47.11,176,,47.11,120
47.125,78,,47.125,188,,47.125,111
47.14,100,,47.14,177,,47.14,130
47.155,86,,47.155,180,,47.155,101
47.17,91,,47.17,189,,47.17,112
47.185,88,,47.185,198,,47.185,104
47.2,83,,47.2,175,,47.2,116
47.215,88,,47.215,164,,47.215,122
47.23,86,,47.23,185,,47.23,113
47.245,88,,47.245,187,,47.245,128
47.26,97,,47.26,181,,47.26,145
47.275,91,,47.275,178,,47.275,129
47.29,81,,47.29,153,,47.29,125
47.305,76,,47.305,174,,47.305,119
47.32,67,,47.32,186,,47.32,110
47.335,77,,47.335,184,,47.335,119
47.35,85,,47.35,184,,47.35,114
47.365,77,,47.365,166,,47.365,119
47.38,76,,47.38,182,,47.38,115
47.395,81,,47.395,183,,47.395,117
47.41,79,,47.41,170,,47.41,125
47.425,84,,47.425,171,,47.425,101
47.44,99,,47.44,174,,47.44,115
47.455,98,,47.455,175,,47.455,118
47.47,82,,47.47,202,,47.47,115
47.485,77,,47.485,181,,47.485,122
47.5,80,,47.5,181,,47.5,115
47.515,84,,47.515,175,,47.515,105
47.53,68,,47.53,153,,47.53,123
47.545,75,,47.545,168,,47.545,120
47.56,68,,47.56,192,,47.56,121
47.575,67,,47.575,187,,47.575,130
47.59,71,,47.59,192,,47.59,110
47.605,79,,47.605,170,,47.605,109
47.62,79,,47.62,180,,47.62,109
47.635,72,,47.635,196,,47.635,114
47.65,84,,47.65,196,,47.65,123
47.665,71,,47.665,206,,47.665,138
47.68,83,,47.68,213,,47.68,134
47.695,83,,47.695,202,,47.695,129
47.71,84,,47.71,192,,47.71,106
47.725,77,,47.725,183,,47.725,112
47.74,80,,47.74,211,,47.74,122
47.755,82,,47.755,193,,47.755,101
47.77,77,,47.77,189,,47.77,105
47.785,83,,47.785,187,,47.785,121
47.8,77,,47.8,176,,47.8,107
47.815,82,,47.815,186,,47.815,114
47.83,85,,47.83,188,,47.83,110
47.845,79,,47.845,182,,47.845,123
47.86,75,,47.86,176,,47.86,118
47.875,92,,47.875,182,,47.875,120
47.89,75,,47.89,200,,47.89,117
47.905,66,,47.905,189,,47.905,116
47.92,73,,47.92,174,,47.92,113
47.935,76,,47.935,162,,47.935,112
47.95,73,,47.95,155,,47.95,131
47.965,76,,47.965,173,,47.965,125
47.98,81,,47.98,176,,47.98,124
47.995,81,,47.995,164,,47.995,125
48.01,77,,48.01,151,,48.01,129
48.025,91,,48.025,152,,48.025,137
48.04,90,,48.04,159,,48.04,128
48.055,85,,48.055,170,,48.055,126
48.07,76,,48.07,160,,48.07,113
48.085,78,,48.085,163,,48.085,117
48.1,74,,48.1,178,,48.1,125
48.115,70,,48.115,158,,48.115,114
48.13,75,,48.13,172,,48.13,114
48.145,75,,48.145,161,,48.145,116
48.16,78,,48.16,171,,48.16,120
48.175,65,,48.175,152,,48.175,116
48.19,71,,48.19,158,,48.19,124
48.205,83,,48.205,140,,48.205,113
48.22,88,,48.22,135,,48.22,119
48.235,80,,48.235,125,,48.235,127
48.25,73,,48.25,148,,48.25,126
48.265,70,,48.265,150,,48.265,114
48.28,73,,48.28,159,,48.28,119
48.295,75,,48.295,153,,48.295,105
48.31,75,,48.31,152,,48.31,104
48.325,73,,48.325,167,,48.325,123
48.34,78,,48.34,149,,48.34,117
48.355,68,,48.355,148,,48.355,108
48.37,81,,48.37,144,,48.37,111
48.385,72,,48.385,150,,48.385,117
48.4,74,,48.4,157,,48.4,109
48.415,80,,48.415,157,,48.415,119
48.43,88,,48.43,169,,48.43,141
48.445,83,,48.445,160,,48.445,137
48.46,90,,48.46,161,,48.46,130
48.475,78,,48.475,164,,48.475,130
48.49,83,,48.49,160,,48.49,139
48.505,89,,48.505,178,,48.505,106
48.52,78,,48.52,167,,48.52,110
48.535,73,,48.535,162,,48.535,125
48.55,72,,48.55,149,,48.55,127
48.565,76,,48.565,146,,48.565,129
48.58,74,,48.58,144,,48.58,131
48.595,79,,48.595,168,,48.595,129
48.61,79,,48.61,164,,48.61,112
48.625,74,,48.625,177,,48.625,111
48.64,85,,48.64,175,,48.64,130
48.655,75,,48.655,165,,48.655,122
48.67,73,,48.67,156,,48.67,128
48.685,75,,48.685,152,,48.685,121
48.7,74,,48.7,155,,48.7,114
48.715,74,,48.715,157,,48.715,119
48.73,75,,48.73,164,,48.73,124
48.745,80,,48.745,161,,48.745,131
48.76,75,,48.76,155,,48.76,122
48.775,68,,48.775,152,,48.775,119
48.79,69,,48.79,169,,48.79,123
48.805,81,,48.805,164,,48.805,127
48.82,77,,48.82,159,,48.82,121
48.835,75,,48.835,157,,48.835,123
48.85,56,,48.85,151,,48.85,111
48.865,73,,48.865,155,,48.865,132
48.88,76,,48.88,161,,48.88,145
48.895,79,,48.895,153,,48.895,131
48.91,69,,48.91,155,,48.91,143
48.925,76,,48.925,160,,48.925,124
48.94,72,,48.94,157,,48.94,128
48.955,70,,48.955,151,,48.955,131
48.97,78,,48.97,140,,48.97,130
48.985,75,,48.985,157,,48.985,140
49,78,,49,165,,49,145
49.015,86,,49.015,161,,49.015,146
49.03,77,,49.03,159,,49.03,147
49.045,71,,49.045,155,,49.045,151
49.06,81,,49.06,142,,49.06,149
49.075,80,,49.075,169,,49.075,154
49.09,84,,49.09,153,,49.09,141
49.105,77,,49.105,154,,49.105,154
49.12,82,,49.12,150,,49.12,153
49.135,85,,49.135,150,,49.135,184
49.15,84,,49.15,145,,49.15,179
49.165,81,,49.165,141,,49.165,174
49.18,70,,49.18,141,,49.18,178
49.195,72,,49.195,152,,49.195,177
49.21,78,,49.21,161,,49.21,185
49.225,85,,49.225,146,,49.225,206
49.24,84,,49.24,145,,49.24,188
49.255,64,,49.255,158,,49.255,207
49.27,84,,49.27,173,,49.27,194
49.285,72,,49.285,181,,49.285,211
49.3,70,,49.3,153,,49.3,225
49.315,75,,49.315,150,,49.315,222
49.33,79,,49.33,171,,49.33,213
49.345,73,,49.345,165,,49.345,248
49.36,67,,49.36,156,,49.36,233
49.375,77,,49.375,161,,49.375,232
49.39,84,,49.39,164,,49.39,256
49.405,81,,49.405,176,,49.405,252
49.42,80,,49.42,177,,49.42,242
49.435,76,,49.435,172,,49.435,251
49.45,72,,49.45,172,,49.45,246
49.465,74,,49.465,186,,49.465,238
49.48,88,,49.48,199,,49.48,223
49.495,81,,49.495,199,,49.495,221
49.51,71,,49.51,183,,49.51,232
49.525,68,,49.525,169,,49.525,241
49.54,79,,49.54,180,,49.54,208
49.555,73,,49.555,189,,49.555,228
49.57,76,,49.57,197,,49.57,219
49.585,78,,49.585,203,,49.585,216
49.6,69,,49.6,210,,49.6,234
49.615,72,,49.615,236,,49.615,231
49.63,79,,49.63,219,,49.63,194
49.645,92,,49.645,207,,49.645,205
49.66,85,,49.66,202,,49.66,198
49.675,80,,49.675,212,,49.675,221
49.69,91,,49.69,200,,49.69,211
49.705,80,,49.705,207,,49.705,188
49.72,75,,49.72,213,,49.72,181
49.735,69,,49.735,178,,49.735,175
49.75,78,,49.75,187,,49.75,210
49.765,63,,49.765,185,,49.765,203
49.78,76,,49.78,203,,49.78,167
49.795,78,,49.795,194,,49.795,182
49.81,81,,49.81,210,,49.81,174
49.825,72,,49.825,223,,49.825,189
49.84,70,,49.84,240,,49.84,165
49.855,72,,49.855,203,,49.855,158
49.87,78,,49.87,183,,49.87,156
49.885,86,,49.885,191,,49.885,165
49.9,74,,49.9,185,,49.9,160
49.915,80,,49.915,179,,49.915,153
49.93,68,,49.93,179,,49.93,173
49.945,69,,49.945,186,,49.945,168
49.96,61,,49.96,201,,49.96,170
49.975,81,,49.975,182,,49.975,166
49.99,72,,49.99,198,,49.99,160
50.005,70,,50.005,177,,50.005,148
50.02,64,,50.02,173,,50.02,164
50.035,78,,50.035,164,,50.035,158
50.05,73,,50.05,173,,50.05,185
50.065,91,,50.065,172,,50.065,184
50.08,76,,50.08,163,,50.08,179
50.095,69,,50.095,157,,50.095,175
50.11,80,,50.11,149,,50.11,182
50.125,68,,50.125,170,,50.125,174
50.14,68,,50.14,169,,50.14,171
50.155,70,,50.155,153,,50.155,170
